time,target
0,64.41567734
1,64.47068717
2,63.21569949
3,61.35463276
4,59.59146646
5,58.63014958
6,60.15836522
7,65.72387338
8,72.18446216
9,82.0599985
10,86.91221945
11,86.07446853
12,81.5234303
13,72.68564896
14,61.77099388
15,48.90992772
16,38.97891532
17,24.14116468
18,11.99570536
19,33.75234569
20,80.73277146
21,122.3355728
22,153.6913038
23,169.1518933
24,168.5122937
25,150.5439892
26,114.5593884
27,64.34865242
28,21.5598525
29,11.58455971
30,20.80741761
31,20.96966764
32,22.70766235
33,25.46897254
34,28.77572345
35,31.55802983
36,33.33099788
37,38.00838491
38,41.40839773
39,44.49603267
40,46.57435979
41,48.8065566
42,50.88488381
43,51.45271304
44,52.45645539
45,51.85411869
46,49.74830303
47,49.25085535
48,48.32219433
49,46.82477725
50,45.42059143
51,45.79262025
52,44.40940009
53,45.01220293
54,46.68260226
55,46.62341789
56,48.3963869
57,48.5003496
58,46.94931357
59,46.57540161
60,45.64674116
61,47.55258394
62,50.62392359
63,58.49012413
64,66.47754053
65,73.75166963
66,78.74607466
67,75.09948852
68,69.85378134
69,61.30741502
70,49.23889299
71,38.5246801
72,26.69623995
73,12.03564653
74,5.988090269
75,38.36713928
76,86.27295226
77,125.0855646
78,154.7023457
79,166.235234
80,158.1084239
81,132.1611182
82,90.866492
83,39.67675477
84,4.831988291
85,6.276284362
86,11.32665958
87,12.9434411
88,15.25953297
89,16.37048572
90,16.42318047
91,19.65534914
92,23.70105546
93,27.4343839
94,31.61763303
95,33.66098964
96,32.53884947
97,35.68944494
98,37.73979022
99,38.35193364
100,41.54214107
101,43.85124503
102,42.42374626
103,42.24099852
104,43.24007455
105,39.63310204
106,37.64148603
107,39.52636543
108,40.97765112
109,43.04664317
110,46.96179614
111,46.70681367
112,46.58235493
113,48.12220287
114,49.29843393
115,47.55391917
116,49.06581316
117,49.30033293
118,51.99173141
119,60.42202153
120,69.53065643
121,77.43650208
122,83.90643468
123,84.92415786
124,81.57591429
125,72.79645739
126,62.91440044
127,51.45192972
128,41.72609235
129,28.77875844
130,24.58203493
131,53.78158222
132,100.5755204
133,138.5046821
134,167.1984007
135,179.4189137
136,176.7419964
137,157.2306065
138,121.5956509
139,72.61801355
140,38.92480004
141,35.64882291
142,40.40546912
143,40.86142567
144,43.32903999
145,44.58919586
146,48.06144895
147,51.57102508
148,57.17383247
149,59.94680591
150,61.12071934
151,61.82841579
152,61.50580832
153,63.77762229
154,63.5855386
155,64.22566931
156,65.60701101
157,68.79023264
158,70.73804172
159,70.37814211
160,68.89937658
161,68.38795729
162,66.7203796
163,67.3021916
164,67.16140844
165,68.12087557
166,68.07567356
167,71.08872965
168,71.4514562
169,70.50647406
170,70.18386745
171,70.91719961
172,69.60161214
173,67.93400446
174,66.76059849
175,67.16760638
176,69.57693365
177,78.28466185
178,87.87114376
179,94.04038939
180,98.94855719
181,99.09216815
182,91.15649449
183,79.29543636
184,67.7304293
185,57.17936882
186,45.82648954
187,32.04932442
188,32.62186027
189,69.1640617
190,116.7342173
191,153.7426359
192,175.6158311
193,182.7174809
194,174.7118921
195,149.8624922
196,108.4000248
197,57.90493415
198,31.7851487
199,34.76558303
200,40.94413753
201,42.2112846
202,43.56934359
203,45.62436307
204,47.81692532
205,52.25188875
206,56.41182781
207,58.93770319
208,62.86918776
209,62.66312965
210,64.63190679
211,65.64966469
212,67.24780594
213,68.67346189
214,68.88467086
215,70.16112646
216,70.81987581
217,68.19893161
218,64.8273771
219,61.91035145
220,59.88614811
221,59.4796206
222,60.44607898
223,61.96029742
224,63.41393851
225,64.26848907
226,65.8503346
227,64.78182008
228,63.80885613
229,64.67741446
230,63.13337517
231,61.31660033
232,62.52314098
233,63.41034573
234,67.48633227
235,76.27563673
236,85.78286726
237,91.19921649
238,90.93023252
239,88.4537901
240,78.35729158
241,66.00438441
242,54.72374291
243,42.98158413
244,28.25340244
245,20.66273302
246,42.65247745
247,89.67487575
248,128.7439049
249,158.4912179
250,170.756048
251,168.5756266
252,149.0758999
253,113.5737929
254,62.24423228
255,22.15704233
256,14.3239723
257,22.16454735
258,22.56689001
259,23.28392999
260,24.96364702
261,26.95107284
262,30.21358416
263,35.98656305
264,40.20476293
265,44.31804344
266,46.72505567
267,47.52601938
268,48.98430124
269,50.59410293
270,53.06404261
271,52.94657999
272,55.94099485
273,56.27342247
274,55.63380423
275,54.56297266
276,52.12382449
277,48.61476059
278,48.40171725
279,52.19801234
280,54.96632285
281,56.38731286
282,62.90156463
283,64.53700175
284,65.22837764
285,64.43260148
286,62.93284588
287,63.23963939
288,61.76084946
289,62.3753213
290,65.35344064
291,72.37816037
292,85.20942922
293,91.6583739
294,93.89058279
295,92.03184934
296,87.63933299
297,81.47524075
298,69.53960315
299,59.79973586
300,48.37224655
301,39.96807272
302,51.93685425
303,96.03619004
304,135.9024021
305,165.9714035
306,182.373779
307,185.7015085
308,175.8078331
309,148.0470007
310,101.321172
311,59.05219151
312,43.32865174
313,52.57483859
314,52.44803965
315,52.34922537
316,52.45320044
317,55.89982694
318,65.00615196
319,67.30827782
320,66.97868985
321,70.29012366
322,76.51299551
323,79.12048044
324,78.80486972
325,78.29113893
326,78.24359471
327,75.7182063
328,77.86881281
329,77.23386639
330,75.86930575
331,74.8824002
332,78.3989737
333,73.76866614
334,69.22698168
335,68.80648256
336,66.82888511
337,63.01910386
338,64.43310807
339,63.29001393
340,64.39630949
341,65.89423718
342,66.31757995
343,63.12318596
344,60.76564504
345,61.41741203
346,63.27663756
347,70.13586314
348,80.81326504
349,85.28787768
350,89.05387221
351,87.75925887
352,79.52290363
353,70.26323302
354,58.50942182
355,46.76491854
356,33.53091335
357,20.06613428
358,27.96732206
359,68.69135534
360,110.6647783
361,140.6475702
362,161.5230929
363,167.3450268
364,155.1576528
365,126.5273773
366,82.55210065
367,37.96143705
368,20.90458698
369,29.69389784
370,32.96569166
371,31.81561052
372,36.71444911
373,40.14246256
374,42.13920164
375,46.04505942
376,47.54298878
377,51.84044821
378,57.45025511
379,60.98547709
380,64.99854336
381,63.33564532
382,62.58647414
383,62.93288406
384,63.40981771
385,59.64200043
386,57.30310775
387,57.20429692
388,58.29429838
389,57.77590146
390,57.91717255
391,56.3638331
392,57.03656791
393,55.54380594
394,57.82960847
395,56.69350554
396,58.03759674
397,57.4749192
398,57.55326342
399,59.97425907
400,60.09221521
401,63.38967579
402,67.67782856
403,73.58600702
404,81.43824679
405,81.73335772
406,78.52965887
407,69.71756163
408,60.16654233
409,49.3008258
410,38.79875679
411,26.28036091
412,11.84121924
413,23.58857053
414,70.89067041
415,115.9900115
416,151.0473605
417,168.9299049
418,171.1621197
419,155.0073412
420,125.5798576
421,75.82373026
422,28.28433882
423,10.47691154
424,19.26155584
425,18.50072899
426,22.56042832
427,21.5711775
428,19.83833542
429,17.8444155
430,20.40762454
431,23.24121937
432,26.0235142
433,27.87575536
434,26.46923803
435,25.19794413
436,29.56300283
437,26.5201331
438,25.33740136
439,23.87961473
440,28.75517166
441,29.01534168
442,29.70907497
443,24.39581979
444,19.19444209
445,18.13292651
446,18.53994735
447,19.80243698
448,20.89476065
449,22.12694643
450,26.2729201
451,25.7964878
452,27.66969545
453,21.58953401
454,23.34854498
455,30.79285873
456,36.78029386
457,48.15701127
458,54.88336862
459,58.10856635
460,53.97246652
461,46.3211995
462,36.64664762
463,25.77394515
464,21.55856084
465,12.51804231
466,6.698959363
467,33.50924048
468,82.96286271
469,126.4654657
470,156.7559411
471,171.4962761
472,170.7308128
473,155.0212883
474,123.7033654
475,78.32950386
476,41.70155298
477,35.30669542
478,44.53189406
479,50.21397141
480,53.08019187
481,52.68536501
482,57.1273302
483,61.48076394
484,64.23742649
485,69.11997409
486,73.27290748
487,76.02957018
488,78.18250367
489,85.85527363
490,89.43478192
491,93.30335276
492,100.9248228
493,105.2012917
494,110.1817401
495,112.3789855
496,111.9025553
497,109.9599082
498,110.0359379
499,112.0233751
500,117.1646514
501,118.7348524
502,120.3843075
503,122.1572674
504,122.3102321
505,118.4025585
506,116.7653012
507,116.0977095
508,121.3975251
509,131.4968402
510,143.2022344
511,146.9868829
512,149.4195416
513,145.8755159
514,136.3361288
515,128.1021312
516,115.1734926
517,104.6434441
518,91.91527546
519,86.18710692
520,103.7060087
521,146.9708518
522,186.0795059
523,215.3909188
524,230.7723391
525,230.531323
526,211.3485954
527,180.4525806
528,132.9621749
529,94.72118948
530,84.00464866
531,89.52358152
532,89.95389138
533,92.39122033
534,91.18984694
535,90.34745186
536,91.72185371
537,97.13119824
538,96.02540609
539,97.67019382
540,99.31031241
541,99.86650771
542,99.37378338
543,100.4474654
544,100.378966
545,98.83259188
546,95.33519855
547,95.34128428
548,92.29378118
549,91.26721319
550,87.9633015
551,83.28872335
552,78.56986424
553,78.93727838
554,78.38626605
555,76.16856675
556,75.42407307
557,76.21104306
558,77.07494791
559,77.92020657
560,77.51836445
561,79.77387101
562,87.36970965
563,95.36181908
564,101.3003092
565,100.8588555
566,95.69709544
567,85.14141454
568,74.76755742
569,63.36107705
570,45.90793536
571,26.96300294
572,19.85486256
573,46.68379499
574,96.01855632
575,136.3370213
576,165.2079155
577,177.8736707
578,175.3249788
579,152.7949333
580,108.5026807
581,54.30362891
582,14.70366772
583,11.46500419
584,20.8603739
585,24.49350612
586,26.50191304
587,28.99286396
588,29.96165916
589,35.41995636
590,35.57756392
591,38.90533753
592,41.89045983
593,45.79632803
594,49.79307762
595,51.78518858
596,49.78660746
597,51.4057632
598,50.43284745
599,54.49719371
600,52.3680891
601,51.94061417
602,46.35463099
603,41.33276528
604,38.57896604
605,34.89972128
606,31.64708179
607,34.99350241
608,35.62895507
609,39.70730938
610,39.40803922
611,39.06448811
612,36.67665604
613,39.39835161
614,48.45805992
615,58.0212778
616,64.29076403
617,69.35981087
618,64.36123079
619,60.41858949
620,49.65780248
621,38.33054823
622,28.54876522
623,16.3101036
624,0.76141395
625,1.567063947
626,36.99038977
627,81.0990489
628,119.4151666
629,145.7219764
630,153.5322653
631,146.3798468
632,124.0456045
633,78.9724402
634,27.56596295
635,-0.372008406
636,4.380022732
637,9.479343956
638,11.11946723
639,11.84818308
640,15.56987994
641,18.3265805
642,22.94805773
643,25.89122079
644,30.23297399
645,29.67494697
646,31.45728254
647,29.89226708
648,27.38090158
649,30.62240477
650,33.73805352
651,30.77447869
652,32.58009946
653,32.1572962
654,33.29857991
655,31.12052773
656,29.70236329
657,29.82268156
658,29.6982489
659,31.28710365
660,31.19761372
661,30.06152349
662,32.37996212
663,34.23923332
664,36.35253289
665,38.00431516
666,42.87057503
667,50.91160911
668,57.10419354
669,65.23150091
670,69.10239964
671,68.15280281
672,62.38033006
673,54.01346648
674,41.34124406
675,31.3473359
676,22.00845708
677,7.988914251
678,7.17448011
679,46.14327966
680,93.41511881
681,131.3932263
682,157.1732443
683,166.5639495
684,158.5234109
685,133.8884815
686,93.72440788
687,45.17807109
688,12.81819675
689,16.50495332
690,21.74880833
691,23.0695982
692,26.5372387
693,26.48272349
694,27.46550081
695,30.58115171
696,34.99517302
697,37.13880863
698,32.8512004
699,32.42141082
700,31.0591872
701,29.94174512
702,29.32314343
703,28.54835282
704,32.15353662
705,34.15962989
706,36.4221319
707,37.76156878
708,38.00542464
709,39.03248368
710,40.57007134
711,41.63442295
712,42.70814351
713,45.06387706
714,50.9021546
715,53.02946417
716,54.57867931
717,52.3306838
718,55.3041544
719,58.48508355
720,68.33733842
721,75.99144271
722,88.59662738
723,97.68664485
724,103.4736228
725,101.4470938
726,94.04992875
727,78.85787244
728,70.69846999
729,63.27802022
730,56.51021942
731,41.93355026
732,48.00260259
733,87.29074066
734,130.6861175
735,164.1770755
736,187.0363197
737,193.9724987
738,187.5962999
739,161.2434165
740,120.4313352
741,72.73116186
742,50.90275372
743,58.28415399
744,60.56063487
745,59.47816804
746,62.27213558
747,67.2525961
748,69.78551638
749,74.69136151
750,81.05179653
751,85.68957535
752,88.12224557
753,88.03510994
754,85.98761669
755,83.96340839
756,83.10237764
757,84.33689747
758,88.37564708
759,95.67312477
760,96.49040841
761,98.4382463
762,98.02475612
763,95.74645885
764,98.01131349
765,100.227218
766,104.6295849
767,109.3139954
768,114.5625233
769,118.0674599
770,117.6143583
771,116.5412006
772,111.7687326
773,109.3296387
774,111.1609001
775,112.7031295
776,120.3106361
777,126.7176727
778,130.4813379
779,131.5993426
780,125.9644178
781,111.432032
782,97.32860135
783,86.13190905
784,74.28485668
785,56.57299723
786,37.8751454
787,43.34977897
788,91.15775609
789,140.4132735
790,173.9904463
791,190.9149702
792,195.1215376
793,182.0320845
794,147.5743149
795,93.35430772
796,39.66109504
797,16.17070223
798,26.78986757
799,30.80994239
800,30.72747819
801,30.81749939
802,30.39003406
803,32.22828534
804,34.80082011
805,38.37335493
806,43.10674795
807,44.52077456
808,47.72734272
809,51.64484844
810,52.36658393
811,51.57547158
812,49.66085463
813,48.3522558
814,47.91780252
815,46.18265959
816,45.05820397
817,43.61908165
818,42.80001552
819,40.8527451
820,38.57448108
821,39.13300909
822,39.38153959
823,39.49487727
824,41.06042447
825,42.2646436
826,44.30107712
827,44.30250704
828,42.4134951
829,41.74826861
830,42.47000507
831,47.79779015
832,52.21413729
833,61.11302843
834,68.29628241
835,71.88047637
836,71.1872656
837,64.01157197
838,53.90576364
839,44.75103568
840,35.46578408
841,27.33669098
842,10.53859158
843,15.02720487
844,53.90043125
845,100.0091008
846,137.0385162
847,159.3010555
848,167.4167137
849,159.2386708
850,131.1725054
851,85.58653409
852,34.16605968
853,10.05796324
854,16.08036002
855,19.29626881
856,21.3466503
857,22.97048765
858,26.18871592
859,29.6889877
860,31.0190935
861,34.00654799
862,39.05461043
863,42.43833577
864,45.38150939
865,44.60672652
866,45.75268954
867,44.81707913
868,43.34533595
869,42.2768521
870,41.45543861
871,39.7552715
872,35.49797554
873,31.08680999
874,28.7246252
875,26.83097684
876,25.37086125
877,22.30472763
878,20.25720978
879,18.64792441
880,17.95474625
881,18.08670243
882,17.13244649
883,15.1618637
884,13.21224653
885,10.82674684
886,9.725640509
887,8.841300583
888,10.15044215
889,16.63206912
890,27.21394637
891,38.21537934
892,44.90913414
893,45.49333088
894,39.5553719
895,29.51020472
896,20.92890478
897,9.207742817
898,0.274453221
899,-13.10173794
900,-14.68770688
901,16.90347876
902,65.10773208
903,105.7898297
904,133.544193
905,146.8859586
906,146.9620078
907,128.4203202
908,95.28656111
909,49.20410212
910,18.1123048
911,19.29556245
912,29.52777035
913,33.50125027
914,36.83370851
915,44.63934185
916,50.14895472
917,54.57229445
918,58.06793037
919,64.79430975
920,68.09179513
921,71.99532914
922,78.95950163
923,83.66256577
924,83.70364265
925,90.84027012
926,94.68087712
927,98.05297832
928,100.1220095
929,105.2330024
930,105.4465954
931,104.2428911
932,109.9436364
933,109.8355438
934,108.8206519
935,110.9596297
936,115.2711234
937,116.9835266
938,118.663276
939,122.438637
940,125.1650174
941,125.9100441
942,128.3940234
943,126.4863708
944,129.581068
945,133.8365929
946,143.0827795
947,156.5877246
948,168.6427797
949,175.6115922
950,180.1957916
951,175.33712
952,167.4737488
953,159.3493302
954,148.1106844
955,135.6435841
956,121.5215155
957,134.2409082
958,178.3565716
959,222.0037293
960,260.776711
961,282.6056619
962,285.1059386
963,269.767043
964,234.4282085
965,184.6720766
966,134.4637353
967,113.6329881
968,121.9001718
969,119.4004794
970,122.4811703
971,125.8182699
972,125.8803452
973,127.6953197
974,129.9484961
975,132.9919253
976,134.9886931
977,135.7943294
978,136.9776208
979,133.3147208
980,133.6634786
981,132.7418507
982,131.2887592
983,128.3158618
984,125.1937641
985,119.1229359
986,113.968215
987,109.1235222
988,106.7683314
989,105.3012326
990,100.1768158
991,95.94982951
992,94.45709617
993,90.26041389
994,87.86094236
995,82.06751946
996,79.69368279
997,74.67180539
998,74.00191779
999,74.27377218
1000,74.73910807
1001,80.24170596
1002,86.73966523
1003,89.72947635
1004,89.91737712
1005,82.78597252
1006,73.45174815
1007,58.6839911
1008,48.25418577
1009,37.04584654
1010,25.52284062
1011,17.66414138
1012,34.03856597
1013,74.24279408
1014,111.1603401
1015,139.4811455
1016,154.5968117
1017,151.2905725
1018,136.0216258
1019,103.3727047
1020,57.82171467
1021,16.72992265
1022,0.321114077
1023,2.329572397
1024,1.706316897
1025,3.663475264
1026,6.030881481
1027,8.517184231
1028,10.03846017
1029,14.32194319
1030,15.91316552
1031,22.70015816
1032,25.21209591
1033,29.30679739
1034,34.77677356
1035,39.60337821
1036,42.38805175
1037,44.87435498
1038,42.10193023
1039,43.63483389
1040,39.61298907
1041,38.65639087
1042,35.45739161
1043,34.0299378
1044,34.23883657
1045,34.61790141
1046,34.54011816
1047,35.92617162
1048,36.35885599
1049,38.08759143
1050,36.11466676
1051,38.40516987
1052,40.55813031
1053,45.90924143
1054,48.55405377
1055,55.43195942
1056,61.15602601
1057,62.69128039
1058,62.21255776
1059,58.9599094
1060,51.1874857
1061,43.59685526
1062,33.99224782
1063,25.6323914
1064,10.24690026
1065,14.00594042
1066,50.77895768
1067,89.03915761
1068,123.6396591
1069,147.8532283
1070,153.4094793
1071,142.4458941
1072,118.5032744
1073,81.27397266
1074,35.69731989
1075,10.25589056
1076,14.7724996
1077,14.58747906
1078,20.05278815
1079,24.95636023
1080,27.48227733
1081,31.34153798
1082,32.56676548
1083,34.47964561
1084,35.73752701
1085,38.50587599
1086,43.32082536
1087,45.63232628
1088,50.79694616
1089,54.65620719
1090,54.91173902
1091,54.9481547
1092,50.68854991
1093,48.33336411
1094,47.31149135
1095,43.59033885
1096,41.13258362
1097,38.77739801
1098,38.01428399
1099,36.58683285
1100,34.28059759
1101,33.77157306
1102,33.65411963
1103,34.25233397
1104,33.17220363
1105,33.77737607
1106,38.27299046
1107,43.41432633
1108,48.21298036
1109,48.43353996
1110,46.73338427
1111,40.26629137
1112,29.84351005
1113,20.77036867
1114,11.58766923
1115,2.752290389
1116,-13.16698122
1117,-15.20981846
1118,15.95480285
1119,55.52735267
1120,89.53346577
1121,111.5232825
1122,118.5550305
1123,112.0972766
1124,90.96352778
1125,51.48248902
1126,5.50724865
1127,-22.69409641
1128,-21.29638136
1129,-17.64457691
1130,-13.41232808
1131,-9.870081643
1132,-6.449050976
1133,-3.118932127
1134,4.260136966
1135,4.114761526
1136,9.372614893
1137,13.36942095
1138,17.90467919
1139,22.64037694
1140,28.43204398
1141,30.56871228
1142,35.55618019
1143,38.83502999
1144,41.44722334
1145,37.99645897
1146,40.26597053
1147,41.69167111
1148,41.27356069
1149,40.77851551
1150,43.20653556
1151,43.32687744
1152,47.11854505
1153,47.15261383
1154,46.73218436
1155,50.80589557
1156,55.61154042
1157,62.41953518
1158,71.6937165
1159,82.73013542
1160,88.20011762
1161,89.54891456
1162,83.40582923
1163,75.94343853
1164,66.4507134
1165,57.13050419
1166,50.49092857
1167,37.42477829
1168,41.13020399
1169,72.80065659
1170,118.0049227
1171,160.2534699
1172,181.0008269
1173,193.6526335
1174,188.2834745
1175,164.7767729
1176,131.2257902
1177,81.32281793
1178,51.47810373
1179,48.25814543
1180,56.61390129
1181,57.04891135
1182,49.19723933
1183,55.9283005
1184,61.93209733
1185,67.264538
1186,75.07952266
1187,78.57050224
1188,84.57429926
1189,89.82049744
1190,95.25553845
1191,92.10546598
1192,89.77591968
1193,97.83565565
1194,101.4571593
1195,106.3094368
1196,105.5813006
1197,106.7622526
1198,108.9874857
1199,109.6882436
1200,112.3936709
1201,112.93824
1202,116.440878
1203,119.5425761
1204,122.7258478
1205,126.5175179
1206,119.6914513
1207,124.2010781
1208,132.6873895
1209,141.017512
1210,150.3686306
1211,155.7500532
1212,154.7025513
1213,147.5385028
1214,139.9176063
1215,126.5554073
1216,102.027742
1217,88.27629137
1218,69.55514475
1219,68.22093055
1220,106.1711097
1221,154.1935545
1222,195.318569
1223,221.501811
1224,228.2561896
1225,210.7425018
1226,173.6973505
1227,126.8783039
1228,73.36693556
1229,45.74137052
1230,50.33956041
1231,54.38764049
1232,58.85762613
1233,56.66562451
1234,55.89320912
1235,54.02518221
1236,57.62340291
1237,67.12836193
1238,76.4095356
1239,78.65808603
1240,80.10475662
1241,81.87778224
1242,84.6997581
1243,82.33991029
1244,82.26912501
1245,78.39877924
1246,76.1718051
1247,76.14993965
1248,74.04186209
1249,67.13889322
1250,63.40609042
1251,60.81781891
1252,58.41832919
1253,58.30091349
1254,57.03664725
1255,55.632519
1256,55.41018401
1257,56.28346064
1258,62.71615504
1259,69.37727356
1260,75.62118632
1261,77.24968164
1262,77.97607741
1263,76.44142586
1264,64.7738703
1265,49.86858286
1266,36.93064166
1267,23.68270295
1268,9.033793822
1269,11.16579905
1270,49.76866004
1271,91.06851205
1272,127.8042162
1273,150.5632663
1274,151.9889729
1275,139.8109503
1276,113.7331475
1277,73.33835873
1278,23.83865052
1279,-2.274094749
1280,2.079346554
1281,2.484057436
1282,6.469212701
1283,8.640830417
1284,7.521096862
1285,11.01205061
1286,16.95756373
1287,22.25506665
1288,24.77168582
1289,30.96429992
1290,36.87252075
1291,40.92527288
1292,42.0899025
1293,41.02375825
1294,40.00659475
1295,38.82622329
1296,39.85566023
1297,37.22076006
1298,31.89121883
1299,27.47778482
1300,24.64940334
1301,24.00983417
1302,20.3399611
1303,21.13865497
1304,25.2403274
1305,26.88982092
1306,28.11038993
1307,30.94170728
1308,32.36973488
1309,39.72085823
1310,47.84352704
1311,50.6002291
1312,46.23339605
1313,45.16029474
1314,43.01721667
1315,36.73198777
1316,22.9059264
1317,12.5997015
1318,-1.305583405
1319,-1.635123637
1320,26.86517016
1321,66.85264663
1322,105.2410631
1323,133.7670223
1324,146.0482001
1325,141.1009538
1326,113.6129056
1327,72.77286775
1328,22.92352204
1329,-10.91184658
1330,-14.61202227
1331,-10.85763859
1332,-9.681349341
1333,-7.449121327
1334,-1.958134719
1335,6.234481574
1336,9.776737808
1337,15.31667475
1338,18.86125042
1339,23.67856173
1340,21.61943876
1341,22.85633635
1342,24.30533115
1343,28.76601423
1344,29.89103452
1345,30.96707414
1346,29.81005107
1347,25.00031808
1348,22.64282513
1349,22.90535787
1350,16.08631716
1351,17.05047963
1352,18.76058331
1353,22.30284036
1354,20.18307963
1355,23.37569688
1356,29.0997778
1357,28.53479627
1358,36.58987094
1359,46.00160459
1360,49.46695767
1361,52.58495973
1362,53.13655558
1363,52.07508386
1364,34.92968884
1365,27.60713933
1366,22.57832156
1367,9.139225518
1368,-3.539952266
1369,6.62233118
1370,53.47461711
1371,97.79543947
1372,138.4798788
1373,160.4137689
1374,159.9793424
1375,150.8386171
1376,123.0918127
1377,77.40332752
1378,30.80105451
1379,11.98433452
1380,20.47297348
1381,21.52572991
1382,28.92580694
1383,36.22798364
1384,42.77488083
1385,45.31015088
1386,50.57036605
1387,56.65574606
1388,61.85303408
1389,68.31603869
1390,72.61821572
1391,77.2164133
1392,81.20621249
1393,85.25198097
1394,84.63341234
1395,82.17100221
1396,82.15149373
1397,81.40005171
1398,83.86305675
1399,85.59879744
1400,84.86832114
1401,86.35232242
1402,83.80366994
1403,84.24567913
1404,85.19586708
1405,88.20901285
1406,91.80022262
1407,98.64549128
1408,109.7751838
1409,118.8652341
1410,125.9319689
1411,126.6700295
1412,120.5456329
1413,115.2370627
1414,106.5112563
1415,98.39384833
1416,88.6960266
1417,73.03082821
1418,62.72927733
1419,86.82396673
1420,137.7998207
1421,180.6777439
1422,213.2759429
1423,229.4802211
1424,228.4187523
1425,207.9004049
1426,167.7853168
1427,114.0058916
1428,73.03533485
1429,66.37013703
1430,76.05927886
1431,75.72739412
1432,77.82211466
1433,79.05669731
1434,81.1607258
1435,81.43260102
1436,84.1590051
1437,87.45651518
1438,91.66543279
1439,91.38017929
1440,90.86885163
1441,88.46473226
1442,88.65268448
1443,88.78466751
1444,92.40386372
1445,95.66640104
1446,96.56297161
1447,96.40595336
1448,96.62652916
1449,92.26904103
1450,91.1446157
1451,86.73817748
1452,86.81889141
1453,89.89728604
1454,96.91974201
1455,99.39907668
1456,103.4471675
1457,112.5558663
1458,122.4407797
1459,130.0809422
1460,135.8772937
1461,132.4242251
1462,130.9035601
1463,122.8863742
1464,114.9857349
1465,103.5420049
1466,97.75559303
1467,88.08340851
1468,75.77252163
1469,91.70873564
1470,139.9176548
1471,183.3736748
1472,215.0254956
1473,229.418558
1474,228.6531731
1475,207.1930861
1476,171.2178625
1477,118.0608151
1478,67.17186476
1479,51.12205629
1480,58.47318782
1481,58.19025567
1482,56.43182918
1483,56.46826358
1484,54.98257278
1485,54.22646578
1486,55.83165642
1487,58.0149416
1488,58.43366994
1489,60.01557582
1490,60.64408209
1491,58.58029714
1492,57.57242045
1493,56.47366246
1494,56.4005698
1495,56.33443519
1496,56.76247177
1497,56.47023253
1498,54.31086686
1499,51.67133767
1500,48.2718598
1501,44.82578163
1502,43.96478652
1503,42.85904048
1504,45.07961895
1505,46.5636252
1506,50.00798917
1507,49.06307095
1508,49.2440378
1509,46.51591656
1510,45.51505977
1511,44.48621841
1512,42.59958901
1513,41.76654852
1514,42.65848367
1515,44.69723894
1516,52.78497496
1517,58.81442246
1518,67.53149208
1519,73.42809666
1520,72.53679845
1521,66.40306865
1522,54.01991873
1523,42.51323371
1524,29.80375942
1525,19.94508474
1526,11.07243306
1527,-0.361986146
1528,19.03342868
1529,75.25867753
1530,121.1459443
1531,153.5996173
1532,167.7782659
1533,166.8356683
1534,143.8115277
1535,105.8526033
1536,54.951998
1537,6.976777261
1538,-5.602172674
1539,7.110259275
1540,9.459074329
1541,10.67031619
1542,13.20095507
1543,16.07421484
1544,18.73070831
1545,23.36153654
1546,28.43761629
1547,33.67919291
1548,38.70864189
1549,42.47933237
1550,42.6812668
1551,44.73870054
1552,46.05019317
1553,47.17754278
1554,45.80605211
1555,43.04997896
1556,41.39876426
1557,40.20210894
1558,37.32247026
1559,36.26332724
1560,32.54686615
1561,34.87468611
1562,35.71297365
1563,40.22960596
1564,40.36162529
1565,43.15563197
1566,45.77483401
1567,46.82524947
1568,47.43514374
1569,50.11025413
1570,48.66884845
1571,50.56777484
1572,49.71609094
1573,52.24206211
1574,50.39971668
1575,51.41982857
1576,51.06234651
1577,51.41345215
1578,51.48486424
1579,51.90359693
1580,51.31997981
1581,52.51028852
1582,50.85440587
1583,54.0190494
1584,54.8899918
1585,56.91480388
1586,59.51533011
1587,62.75223945
1588,64.55326627
1589,65.42420891
1590,67.51658714
1591,67.78611997
1592,68.17921851
1593,74.78441427
1594,78.17052438
1595,84.03212893
1596,91.03826477
1597,94.02578494
1598,92.44448802
1599,89.09167626
1600,83.01620829
1601,73.6074579
1602,66.317543
1603,57.16050169
1604,40.38111546
1605,48.97932327
1606,94.0623944
1607,136.427509
1608,168.8835356
1609,189.9269645
1610,192.6603655
1611,178.7807293
1612,150.964051
1613,106.5925631
1614,62.04624012
1615,46.10367692
1616,56.27531055
1617,61.12293909
1618,65.73515509
1619,69.75761894
1620,71.35582746
1621,73.37362222
1622,77.32382058
1623,82.01062178
1624,86.59250359
1625,89.83640327
1626,92.85419826
1627,94.96058583
1628,93.95741534
1629,93.95189505
1630,91.31933013
1631,90.02477795
1632,91.29199339
1633,91.91119863
1634,92.39518053
1635,88.14957874
1636,85.37251337
1637,81.34602788
1638,78.3451772
1639,78.67532023
1640,78.04742497
1641,78.68060765
1642,79.6051722
1643,77.43647509
1644,76.44496308
1645,72.20866962
1646,72.73464428
1647,71.81768686
1648,71.315677
1649,70.11435688
1650,67.07389496
1651,64.70240892
1652,62.88338265
1653,61.50490818
1654,60.51104679
1655,59.25378824
1656,59.14106098
1657,58.07261478
1658,59.62654412
1659,62.38091295
1660,65.60152939
1661,75.77783436
1662,81.73969235
1663,83.09315195
1664,81.59114285
1665,73.13106495
1666,61.90646073
1667,50.71213
1668,40.88376611
1669,29.26054143
1670,14.39955434
1671,31.52922893
1672,79.54937597
1673,123.0007364
1674,154.9206333
1675,169.1645354
1676,169.6555384
1677,154.5707662
1678,118.4627092
1679,70.90940076
1680,24.31413071
1681,13.19441612
1682,24.29378727
1683,25.2300115
1684,27.11493573
1685,33.17704507
1686,37.48155557
1687,39.00982101
1688,40.62435969
1689,45.89157786
1690,50.93269134
1691,54.2651867
1692,55.70724022
1693,58.10965145
1694,62.43280858
1695,64.74430804
1696,62.39382024
1697,61.00835935
1698,60.77206843
1699,56.27936886
1700,53.6468378
1701,49.85344863
1702,45.72671601
1703,46.09650442
1704,47.93247941
1705,47.20436754
1706,48.60909872
1707,51.92526795
1708,53.68900802
1709,51.02382358
1710,51.23275418
1711,50.81699
1712,51.26835234
1713,53.06004675
1714,51.48345508
1715,49.95114446
1716,51.21137539
1717,51.06364739
1718,48.61294092
1719,45.71698303
1720,43.48304301
1721,46.40526149
1722,52.10137528
1723,59.37094492
1724,66.70341135
1725,75.20607435
1726,81.90685752
1727,78.30228185
1728,69.18256951
1729,58.22832353
1730,46.63073653
1731,37.96091446
1732,21.58009392
1733,14.60488255
1734,40.50848592
1735,91.40275097
1736,133.7818488
1737,159.1632966
1738,169.7242183
1739,163.1103048
1740,141.7528306
1741,103.1948559
1742,52.47608418
1743,16.28642627
1744,10.84267904
1745,21.18915404
1746,24.68247967
1747,26.95201994
1748,31.82995871
1749,35.66129717
1750,43.82594868
1751,46.49175989
1752,50.36271032
1753,55.74415884
1754,58.97408764
1755,63.40912512
1756,67.21714849
1757,70.59392802
1758,72.75626057
1759,74.78105044
1760,74.78020559
1761,70.46002486
1762,66.16312909
1763,64.35808516
1764,61.37356741
1765,59.11396426
1766,56.59798299
1767,55.8279124
1768,55.92963752
1769,57.04067055
1770,58.23562696
1771,61.11356682
1772,61.13835731
1773,62.21676724
1774,63.93387961
1775,63.51112996
1776,63.02777245
1777,65.36259126
1778,63.81395675
1779,61.76648195
1780,61.21085901
1781,58.75313651
1782,61.32107933
1783,70.8400415
1784,81.13289897
1785,91.53299526
1786,97.45289751
1787,94.44271557
1788,83.04096264
1789,75.70677568
1790,67.20010341
1791,50.84495096
1792,38.79982664
1793,43.0740383
1794,89.82142506
1795,150.256495
1796,192.045874
1797,213.9284843
1798,222.3821701
1799,215.0992837
1800,186.4294344
1801,135.8132045
1802,81.22260949
1803,47.29870151
1804,55.17896228
1805,59.01729195
1806,58.34979281
1807,59.00394899
1808,61.11266454
1809,64.90204421
1810,70.37205747
1811,74.46679611
1812,75.64075844
1813,80.08748693
1814,84.28244544
1815,82.41911543
1816,85.03366023
1817,86.23563793
1818,86.68932466
1819,89.04746091
1820,88.21211576
1821,80.96420351
1822,75.30366315
1823,73.59887234
1824,69.02927445
1825,65.88390146
1826,65.52176216
1827,67.18525767
1828,69.6669295
1829,73.23252472
1830,72.71886584
1831,69.95343698
1832,69.80342566
1833,69.09860481
1834,66.7038426
1835,65.69601281
1836,62.7067988
1837,61.26073668
1838,59.24124933
1839,65.21477349
1840,72.02747006
1841,80.005633
1842,84.40573201
1843,85.59837258
1844,81.88424439
1845,74.71323759
1846,64.35106873
1847,51.73719093
1848,36.78298115
1849,22.88236029
1850,32.34538693
1851,73.30957329
1852,115.5977953
1853,148.1144415
1854,168.3443446
1855,171.681517
1856,159.1025822
1857,127.1227381
1858,81.60441136
1859,31.20961983
1860,9.600381325
1861,12.52962553
1862,11.75720963
1863,11.30651009
1864,16.6599793
1865,16.28383429
1866,18.38556409
1867,20.9721267
1868,24.09717203
1869,27.21287902
1870,32.79712244
1871,36.08067621
1872,37.83740508
1873,39.48225655
1874,39.10144279
1875,38.56447062
1876,39.96692112
1877,39.8262198
1878,37.46405247
1879,36.15321575
1880,31.97986077
1881,26.70164744
1882,24.03412141
1883,22.33632199
1884,22.00915861
1885,24.09456241
1886,25.7720378
1887,28.38890532
1888,30.51163226
1889,30.47115125
1890,29.81531384
1891,32.37856216
1892,35.90918725
1893,43.73586341
1894,48.72803644
1895,54.95562212
1896,58.01774153
1897,58.13110001
1898,53.57783256
1899,44.80541843
1900,37.19154316
1901,30.52868723
1902,19.39964483
1903,7.228640799
1904,2.838520608
1905,38.39948079
1906,81.21215
1907,119.6355675
1908,146.1218819
1909,156.8413505
1910,152.3463417
1911,128.7254479
1912,87.68496802
1913,40.37410241
1914,8.713596958
1915,10.88991406
1916,15.79117628
1917,20.22158283
1918,25.4538388
1919,29.14764266
1920,36.20042485
1921,40.01309477
1922,45.09853086
1923,49.68509615
1924,55.92901012
1925,63.11698541
1926,69.1161485
1927,72.72371007
1928,76.3545566
1929,76.684744
1930,82.26197124
1931,80.47793144
1932,78.37919443
1933,73.12893768
1934,69.94160823
1935,68.48856227
1936,66.95626221
1937,64.54282817
1938,64.36950648
1939,64.43626662
1940,69.07645211
1941,65.31572821
1942,64.2682612
1943,59.35366778
1944,58.29457367
1945,58.39627673
1946,61.35814829
1947,67.50184363
1948,73.12805244
1949,76.45821028
1950,76.50165552
1951,67.94372141
1952,58.79371582
1953,48.50848688
1954,40.75240229
1955,29.12919127
1956,15.23559456
1957,21.40956381
1958,61.27353556
1959,107.9626721
1960,146.3744345
1961,164.2407257
1962,167.6291728
1963,156.3696096
1964,127.2848512
1965,80.85045288
1966,32.07337276
1967,9.084195516
1968,15.54490846
1969,22.51376965
1970,26.75768581
1971,27.43516526
1972,29.95416697
1973,32.88106667
1974,33.34409924
1975,33.9353362
1976,38.39369968
1977,42.00126364
1978,45.08902174
1979,48.46346201
1980,51.36704663
1981,52.08184955
1982,49.50759002
1983,47.26432419
1984,41.58282598
1985,37.5936496
1986,34.78162781
1987,29.55703893
1988,25.75899428
1989,22.07050779
1990,20.41699449
1991,17.5863267
1992,16.28944192
1993,17.03219951
1994,17.39269397
1995,19.78346192
1996,19.58447771
1997,20.55334024
1998,27.02803167
1999,32.61228125
2000,38.58114392
2001,38.16774345
2002,35.89649391
2003,29.73715237
2004,19.29109824
2005,9.754132285
2006,-0.77349524
2007,-14.05637174
2008,-23.36723281
2009,-4.407708094
2010,42.38168117
2011,82.66289178
2012,112.8648788
2013,126.4118061
2014,123.7210014
2015,106.3378751
2016,71.57947408
2017,25.70220719
2018,-14.18442855
2019,-21.53722025
2020,-9.398221126
2021,-4.128637241
2022,-1.427839929
2023,2.671547518
2024,7.791931108
2025,12.73049101
2026,17.63175849
2027,26.77777699
2028,33.75597937
2029,40.26564542
2030,47.08765894
2031,50.11945033
2032,50.999722
2033,52.1294444
2034,51.60178769
2035,50.68021014
2036,48.39266583
2037,47.37785717
2038,45.05768967
2039,41.57434473
2040,40.12594246
2041,39.22536129
2042,39.25715321
2043,38.67123888
2044,40.13195545
2045,42.02620479
2046,44.40299812
2047,48.57932153
2048,55.2917778
2049,61.60564403
2050,68.70970196
2051,75.43848528
2052,77.59149349
2053,73.87038677
2054,68.38237335
2055,60.35590784
2056,54.46228539
2057,46.17941128
2058,33.73570958
2059,33.74885607
2060,68.4496552
2061,116.3019741
2062,153.2428552
2063,177.076528
2064,188.6654498
2065,183.2636796
2066,162.7733474
2067,126.1314955
2068,82.05839979
2069,57.43519422
2070,61.42502581
2071,67.66662746
2072,69.10869914
2073,70.3735858
2074,71.63850303
2075,71.70526967
2076,71.64151268
2077,73.69427185
2078,77.40441021
2079,80.37095732
2080,82.63352498
2081,83.5744069
2082,82.51995805
2083,79.40026267
2084,76.27821749
2085,72.58741625
2086,66.88028815
2087,63.05429414
2088,59.41244323
2089,57.36730259
2090,55.83735974
2091,55.39594843
2092,54.84967878
2093,56.32205541
2094,55.23031466
2095,54.71898777
2096,56.87666728
2097,62.43293693
2098,66.62790901
2099,75.48489897
2100,80.25329644
2101,83.4715841
2102,80.28893187
2103,73.10396034
2104,61.94697349
2105,54.33539684
2106,47.85672428
2107,37.17758181
2108,27.57766302
2109,46.16658704
2110,90.02589686
2111,131.2675004
2112,159.6419776
2113,175.8532468
2114,179.887392
2115,170.7536906
2116,142.5640505
2117,101.2672022
2118,67.50178703
2119,61.0883922
2120,74.97800645
2121,80.13568716
2122,84.76654296
2123,91.68182263
2124,98.65069123
2125,105.1207195
2126,112.2271004
2127,118.4687048
2128,125.4562198
2129,130.278238
2130,135.4755615
2131,136.0131865
2132,138.8818358
2133,140.647885
2134,140.1086058
2135,139.9795746
2136,140.6500734
2137,138.4464572
2138,135.8698553
2139,134.6615701
2140,132.8682019
2141,130.6109665
2142,132.3817159
2143,133.5836786
2144,135.4989288
2145,139.8734075
2146,150.0660626
2147,158.5990192
2148,170.6354854
2149,182.6719821
2150,188.8366527
2151,190.5654103
2152,187.3851103
2153,179.920417
2154,167.1480151
2155,159.1868315
2156,151.3864755
2157,133.0756215
2158,136.8323641
2159,176.962062
2160,220.5883114
2161,249.4312968
2162,257.463125
2163,246.9145088
2164,216.435778
2165,172.1972206
2166,109.0891564
2167,40.2421701
2168,1.313610375
2169,-2.281605797
2170,-7.818563865
2171,-15.67253849
2172,-21.7689447
2173,-25.80706229
2174,-27.38131265
2175,-25.36816062
2176,-23.62072509
2177,-22.93157808
2178,-23.7435907
2179,-24.38076807
2180,-29.08322248
2181,-28.59921445
2182,-30.45550788
2183,-30.78732617
2184,-30.39654919
2185,-27.9428144
2186,-30.3212634
2187,-32.62744673
2188,-35.72385218
2189,-36.71301882
2190,-40.57398106
2191,-38.86151795
2192,-39.05814294
2193,-35.92145489
2194,-29.79874384
2195,-20.39163944
2196,-10.154701
2197,6.292045838
2198,21.5802539
2199,34.92675059
2200,41.85366114
2201,44.94841842
2202,41.96624094
2203,34.19851052
2204,28.39348767
2205,20.28545584
2206,7.079493142
2207,-0.250004662
2208,22.3668782
2209,72.31945446
2210,115.2207307
2211,144.5835244
2212,155.2680344
2213,148.2112725
2214,124.8211671
2215,80.84130955
2216,25.39993473
2217,-18.69646933
2218,-26.84179302
2219,-18.65615354
2220,-17.61968392
2221,-15.03542373
2222,-10.59102556
2223,-3.880880262
2224,1.393351995
2225,6.756176828
2226,12.68540796
2227,18.6333159
2228,24.41804639
2229,28.3216429
2230,32.20659322
2231,33.09856262
2232,33.98818223
2233,36.0269718
2234,33.21728119
2235,32.94839264
2236,32.70050022
2237,33.98172162
2238,33.82474117
2239,34.57214919
2240,35.72751625
2241,35.78730229
2242,37.06153541
2243,41.27751052
2244,44.57969783
2245,51.80965009
2246,64.37526523
2247,78.39308989
2248,89.14751739
2249,98.93923741
2250,102.7752385
2251,100.7580902
2252,89.9344234
2253,76.14807965
2254,61.84888805
2255,49.50773482
2256,35.10597374
2257,22.8347669
2258,45.24651298
2259,98.55340072
2260,141.4849833
2261,172.661317
2262,185.1966289
2263,180.5361401
2264,159.7893782
2265,125.5438065
2266,75.00218385
2267,35.24614472
2268,32.22899724
2269,42.84356368
2270,43.15277128
2271,43.75101091
2272,43.05554942
2273,40.22721443
2274,41.14015147
2275,46.34678973
2276,47.53478179
2277,52.20763719
2278,56.90377754
2279,61.04281956
2280,70.80423711
2281,79.80573649
2282,89.70701619
2283,100.9323011
2284,108.3650445
2285,114.6090062
2286,115.5895098
2287,115.0735534
2288,114.1403302
2289,114.111526
2290,118.2132761
2291,118.7788934
2292,122.8480202
2293,124.4252648
2294,121.587623
2295,121.2977717
2296,121.1360943
2297,121.3404143
2298,125.7102311
2299,130.3317875
2300,136.7785088
2301,134.6891278
2302,129.7419282
2303,117.8506674
2304,104.0736034
2305,88.60891744
2306,74.78760308
2307,56.90800019
2308,38.78596571
2309,39.87605896
2310,81.33208854
2311,121.1028459
2312,151.1346508
2313,167.8401312
2314,168.3661377
2315,153.2254574
2316,121.8423454
2317,71.36832158
2318,21.54932713
2319,-3.498091348
2320,4.554679431
2321,8.260160218
2322,9.243015321
2323,10.54758678
2324,11.67030404
2325,14.87926402
2326,18.54745257
2327,18.53729644
2328,22.5784404
2329,23.69416937
2330,26.22249605
2331,31.34521364
2332,36.04837562
2333,38.04987749
2334,39.14232179
2335,44.61236013
2336,46.33413802
2337,44.22376264
2338,45.91526719
2339,41.40862115
2340,40.34487677
2341,42.68204186
2342,44.79545212
2343,44.81328137
2344,44.95699568
2345,48.32214558
2346,48.35862122
2347,48.10371507
2348,51.20079871
2349,51.78738435
2350,57.75861359
2351,59.46873448
2352,56.76396895
2353,50.16409238
2354,40.80194779
2355,33.27433694
2356,23.87724982
2357,10.07690347
2358,-4.413414755
2359,-11.57972781
2360,15.05580856
2361,53.96176123
2362,91.06116487
2363,116.1442722
2364,126.3905265
2365,125.7626659
2366,106.5380951
2367,70.15730491
2368,27.37795518
2369,-2.319851538
2370,-5.033924073
2371,-0.16761326
2372,6.892179046
2373,9.278295863
2374,10.99076771
2375,18.3698961
2376,22.03109851
2377,25.60602777
2378,30.40941167
2379,36.51583517
2380,39.03949505
2381,43.57481269
2382,46.65325171
2383,47.96246471
2384,48.94532277
2385,50.97713108
2386,47.66863793
2387,43.04776689
2388,38.22410659
2389,33.398127
2390,28.32504663
2391,26.98158057
2392,26.03670464
2393,27.57669204
2394,28.75535137
2395,29.89671826
2396,31.8026726
2397,33.77155424
2398,36.50502332
2399,42.98205325
2400,52.30057492
2401,61.05967891
2402,62.94930664
2403,60.79230355
2404,54.89640891
2405,47.96084147
2406,40.89243105
2407,29.1690219
2408,13.21480836
2409,11.80142739
2410,44.55818196
2411,88.99093145
2412,123.4166925
2413,147.8774267
2414,156.9651751
2415,152.0972351
2416,131.949571
2417,91.94408834
2418,46.01554056
2419,18.1569086
2420,20.42651155
2421,26.02008916
2422,30.32463483
2423,34.09771693
2424,37.47684765
2425,41.31520695
2426,47.34469788
2427,49.65858217
2428,55.50624946
2429,58.31894366
2430,60.84727512
2431,62.98400506
2432,66.13935077
2433,64.54646655
2434,63.77874717
2435,64.5331836
2436,63.91933394
2437,63.66910128
2438,65.69859278
2439,66.89358116
2440,68.8111648
2441,69.19032686
2442,66.97738692
2443,65.92994384
2444,65.95479696
2445,68.2406975
2446,69.10002337
2447,73.70294059
2448,81.82334444
2449,93.71761308
2450,102.3718305
2451,108.0143597
2452,107.4144879
2453,105.1036481
2454,96.10982493
2455,86.64981529
2456,76.30635234
2457,64.65753054
2458,47.50983794
2459,47.2526178
2460,82.53619971
2461,130.6099733
2462,169.0194403
2463,195.9020519
2464,207.0667681
2465,204.3223656
2466,184.3844817
2467,151.2694434
2468,104.5833296
2469,80.38903721
2470,87.50712278
2471,94.14498378
2472,95.93439512
2473,96.80538
2474,97.34070208
2475,99.46110722
2476,98.28314204
2477,97.49909781
2478,92.31414421
2479,88.05225583
2480,83.18898811
2481,77.132239
2482,74.08247845
2483,72.11194159
2484,72.11113134
2485,70.14996347
2486,68.74122485
2487,66.49099457
2488,66.84916278
2489,67.79473338
2490,69.22516731
2491,69.26631907
2492,73.87155778
2493,76.32295743
2494,76.36645918
2495,75.1558411
2496,77.32986663
2497,80.95143248
2498,88.54736362
2499,98.5418849
2500,107.6972644
2501,110.3677806
2502,109.007993
2503,101.0351682
2504,89.03435893
2505,76.79343738
2506,66.28213013
2507,54.18808978
2508,36.82131387
2509,35.20978704
2510,77.50966773
2511,130.809579
2512,167.8810052
2513,190.9594505
2514,196.9399954
2515,187.393746
2516,163.2274404
2517,120.014504
2518,69.68035191
2519,39.29493029
2520,48.10997869
2521,58.3376248
2522,57.22725826
2523,59.06794157
2524,59.54265813
2525,62.00803636
2526,67.3289139
2527,71.60547997
2528,73.2153896
2529,74.22391987
2530,73.2440774
2531,75.26191563
2532,76.92544483
2533,79.64958199
2534,77.88421724
2535,75.50111572
2536,76.41406528
2537,76.61839672
2538,74.88797479
2539,73.94777507
2540,67.00757541
2541,68.20955718
2542,69.63767426
2543,71.85131385
2544,70.76426379
2545,69.09911929
2546,70.60414086
2547,74.9576427
2548,81.623492
2549,88.75320854
2550,94.77339753
2551,99.24344619
2552,100.363855
2553,96.3816943
2554,85.88204706
2555,71.55024654
2556,59.26504642
2557,46.52763687
2558,27.75995394
2559,25.40947686
2560,62.25483112
2561,106.5850182
2562,140.2718643
2563,156.986695
2564,158.1373778
2565,143.225164
2566,113.8001023
2567,67.29813631
2568,11.75420873
2569,-16.45173662
2570,-11.05392216
2571,-5.315806133
2572,-4.715202269
2573,-3.706700407
2574,0.800672352
2575,6.035279045
2576,9.820026167
2577,16.7725895
2578,18.84173003
2579,22.94114404
2580,26.14779687
2581,26.59920073
2582,29.12287025
2583,26.97289481
2584,25.1399055
2585,26.36056613
2586,33.63713502
2587,45.70160679
2588,57.97585644
2589,77.36433343
2590,99.97891521
2591,118.8102634
2592,134.3152872
2593,138.4217209
2594,134.5491202
2595,130.5040343
2596,123.7479803
2597,110.4954055
2598,96.38040389
2599,88.68028883
2600,85.36945605
2601,85.21014308
2602,85.79677133
2603,82.93115963
2604,74.9466515
2605,64.5122838
2606,50.9007616
2607,36.65288691
2608,23.47724738
2609,8.979952623
2610,-0.137428758
2611,29.09952951
2612,88.58126932
2613,142.7599391
2614,178.6752117
2615,202.5648496
2616,206.1491287
2617,190.782358
2618,156.1755056
2619,103.2399483
2620,59.092294
2621,50.50176861
2622,58.91820128
2623,58.37427633
2624,52.08444079
2625,52.79457477
2626,53.48374323
2627,55.4386588
2628,57.02760763
2629,54.87296519
2630,55.17984014
2631,55.54033452
2632,53.14792978
2633,49.14013812
2634,42.64748322
2635,40.39262135
2636,42.44076855
2637,43.12993754
2638,46.16175793
2639,47.65280689
2640,50.0785788
2641,52.87730608
2642,52.12592354
2643,51.39785648
2644,50.14296452
2645,47.99296152
2646,47.1553365
2647,45.20116489
2648,45.10246209
2649,45.3464107
2650,47.90737595
2651,55.12337055
2652,66.4652197
2653,82.44809061
2654,98.69203946
2655,108.3392782
2656,114.2988338
2657,113.9064302
2658,107.6865121
2659,101.0796311
2660,94.36090322
2661,77.16430065
2662,66.91639807
2663,89.34217108
2664,139.413635
2665,182.6249611
2666,214.3141315
2667,227.3552611
2668,225.8556193
2669,208.5191856
2670,173.033521
2671,118.2401781
2672,74.94100651
2673,63.39009543
2674,67.93940412
2675,63.76611764
2676,60.01473673
2677,56.2820021
2678,52.86396479
2679,50.72095194
2680,49.72482024
2681,50.3627218
2682,50.85609215
2683,50.57556728
2684,49.36031956
2685,45.81639758
2686,44.29112188
2687,44.91269681
2688,46.0750738
2689,48.10222744
2690,48.7331409
2691,52.65308639
2692,57.30029633
2693,59.86126364
2694,60.17281083
2695,58.76176286
2696,58.01505209
2697,60.04919464
2698,62.26986068
2699,60.04994449
2700,60.91627102
2701,61.25812251
2702,61.55804288
2703,62.66912054
2704,66.94337573
2705,76.53464757
2706,84.0023843
2707,88.67522972
2708,86.0357583
2709,80.04661651
2710,70.84299723
2711,56.32706111
2712,43.50341629
2713,26.61449442
2714,10.58107187
2715,24.21662519
2716,71.87085532
2717,111.6322937
2718,142.3331243
2719,159.6679881
2720,158.6998124
2721,142.321389
2722,108.1247893
2723,54.15429447
2724,4.531120194
2725,-11.61884847
2726,-5.927355895
2727,-11.86287744
2728,-11.45809742
2729,-9.249087615
2730,-8.420052129
2731,-4.963971918
2732,-0.715350155
2733,1.775672779
2734,4.502169394
2735,6.592282999
2736,4.00173259
2737,2.234027688
2738,1.993147784
2739,2.910745712
2740,4.571965514
2741,8.955780578
2742,13.27898778
2743,16.42739034
2744,19.24009959
2745,22.33253301
2746,22.70935979
2747,24.37057993
2748,22.39074786
2749,22.75359773
2750,26.62459584
2751,27.55385206
2752,27.38523845
2753,29.11170546
2754,31.94773061
2755,36.12176851
2756,41.38436848
2757,50.41854441
2758,57.24758124
2759,65.51485053
2760,69.61894238
2761,65.44331016
2762,58.30967017
2763,50.08041866
2764,42.48523092
2765,28.41216846
2766,10.85192344
2767,7.48284058
2768,41.70347944
2769,91.27143891
2770,134.9652834
2771,162.3421114
2772,172.7375857
2773,167.317203
2774,145.1159367
2775,101.1338171
2776,51.855616
2777,21.37929485
2778,25.83070811
2779,34.0070665
2780,39.04591272
2781,44.06141305
2782,46.8345123
2783,49.95493215
2784,51.49960742
2785,52.58505423
2786,56.02014097
2787,60.16155711
2788,61.56634
2789,59.05272694
2790,59.54143326
2791,64.28422898
2792,66.52818442
2793,68.69523562
2794,71.86927538
2795,75.59806373
2796,79.28260163
2797,81.91815888
2798,81.01993321
2799,80.50397077
2800,80.86450374
2801,81.99423232
2802,81.0120835
2803,81.60336002
2804,82.99416662
2805,83.04699109
2806,83.10915399
2807,82.80296976
2808,86.53645844
2809,94.10676967
2810,102.4649227
2811,111.7485214
2812,116.3397984
2813,117.3972924
2814,112.4314406
2815,102.0740177
2816,89.60468695
2817,76.48734597
2818,61.08561174
2819,47.15476378
2820,59.08869248
2821,108.3349992
2822,152.2316355
2823,186.0187137
2824,203.9293272
2825,202.7980096
2826,183.0279896
2827,148.7754562
2828,99.17325248
2829,53.9090615
2830,36.5329626
2831,45.38064915
2832,45.25400103
2833,47.93152167
2834,48.53445739
2835,50.91128842
2836,52.05734557
2837,55.91900946
2838,60.72940386
2839,63.60275608
2840,60.96792963
2841,58.29813009
2842,59.89175833
2843,57.16135097
2844,51.97873419
2845,52.27631155
2846,49.05872172
2847,49.17450596
2848,50.47208346
2849,50.66474157
2850,48.8924034
2851,44.55594784
2852,48.08661879
2853,46.17673804
2854,42.76102847
2855,40.76023595
2856,38.78040904
2857,34.87284781
2858,32.98396339
2859,33.41673429
2860,38.21315269
2861,44.14241417
2862,55.03206387
2863,63.1827915
2864,64.98387929
2865,65.50756234
2866,57.12212678
2867,41.06075744
2868,25.5447983
2869,12.05450449
2870,1.160920928
2871,-13.74895897
2872,-9.383783885
2873,35.53385096
2874,80.97596096
2875,114.7443955
2876,131.0326359
2877,137.6705468
2878,123.9075179
2879,88.99064982
2880,47.28120981
2881,-1.770851007
2882,-23.02106241
2883,-10.57895199
2884,-7.328003624
2885,-5.550230264
2886,-2.450801582
2887,4.639319286
2888,7.403085222
2889,4.358013315
2890,12.22202959
2891,13.76436012
2892,14.33232547
2893,19.75579013
2894,15.96944649
2895,15.54906969
2896,15.68347199
2897,22.49621907
2898,20.75650648
2899,20.5016267
2900,26.84348769
2901,28.78208946
2902,27.21022374
2903,29.62200064
2904,31.17367017
2905,32.80224405
2906,32.49841441
2907,36.71442124
2908,36.74393521
2909,38.71516064
2910,40.29014589
2911,41.79051571
2912,46.10674251
2913,55.43462707
2914,65.73919625
2915,70.85495322
2916,74.23178812
2917,79.40348391
2918,77.37239044
2919,70.19212709
2920,57.02584084
2921,51.44695699
2922,37.86108466
2923,26.07941159
2924,40.7639251
2925,88.07316399
2926,134.7203851
2927,169.9060889
2928,184.9682272
2929,188.9068303
2930,173.1205188
2931,146.9938449
2932,101.4079731
2933,63.2603337
2934,53.17562161
2935,62.4032875
2936,69.26962531
2937,70.89820071
2938,73.03959355
2939,79.90129283
2940,88.0450051
2941,93.0069242
2942,99.12268246
2943,102.7023385
2944,102.2400024
2945,103.2228872
2946,105.5158002
2947,102.6898473
2948,104.469943
2949,104.9003989
2950,107.512648
2951,113.423298
2952,117.7884769
2953,118.0301207
2954,117.9267634
2955,117.4201468
2956,117.9717883
2957,118.0595931
2958,115.9375897
2959,112.8435709
2960,111.0828652
2961,114.7114418
2962,113.9134742
2963,117.3648963
2964,121.7860145
2965,129.1139015
2966,138.6212625
2967,144.744041
2968,144.097563
2969,141.6771897
2970,128.3267628
2971,118.2303947
2972,107.0128109
2973,99.79757702
2974,79.24668032
2975,75.20393185
2976,105.0842791
2977,149.6732141
2978,186.7563508
2979,211.9606729
2980,218.3701646
2981,212.3856745
2982,190.4664921
2983,154.6218946
2984,102.8658592
2985,72.54106778
2986,76.31881545
2987,84.7422846
2988,85.22401186
2989,88.58687319
2990,88.80285348
2991,90.84170978
2992,93.44697239
2993,94.30632439
2994,96.67385516
2995,95.27911791
2996,98.17109335
2997,97.59688231
2998,92.27676068
2999,93.92398529
3000,93.47099022
3001,96.62172444
3002,97.75613181
3003,96.05139738
3004,97.59837199
3005,94.47405147
3006,95.7156978
3007,91.18344891
3008,87.94957044
3009,94.1422362
3010,100.5004293
3011,99.6861372
3012,97.90211853
3013,92.94564508
3014,88.3201348
3015,89.43824641
3016,91.88033267
3017,90.10333328
3018,94.42423434
3019,100.2765991
3020,100.3783535
3021,91.24005668
3022,80.49568082
3023,68.33870736
3024,56.78781304
3025,42.21592268
3026,35.08928384
3027,59.79479836
3028,101.9968034
3029,136.3340014
3030,157.7831073
3031,167.4186758
3032,160.5367882
3033,140.5802852
3034,100.5398894
3035,51.57172874
3036,20.46605595
3037,19.77761953
3038,24.16611797
3039,25.46135474
3040,25.59344459
3041,28.69754987
3042,33.93452873
3043,29.8521717
3044,22.55069851
3045,25.79466604
3046,28.56542805
3047,32.37119377
3048,31.69441559
3049,29.8941023
3050,28.72782227
3051,31.22121025
3052,33.04327259
3053,26.76740408
3054,25.66640134
3055,32.57238716
3056,31.94455956
3057,29.93443831
3058,26.25769113
3059,24.28486245
3060,25.69432752
3061,26.12945793
3062,25.02143652
3063,23.91576502
3064,24.04086749
3065,28.50395218
3066,32.19781085
3067,39.72150355
3068,49.24986549
3069,53.75723138
3070,52.77042618
3071,45.22884197
3072,34.66629224
3073,22.29023547
3074,11.7486514
3075,-3.692682368
3076,-17.41609007
3077,-6.596345863
3078,34.6942541
3079,75.16664733
3080,106.5481593
3081,124.3282613
3082,127.040767
3083,115.571449
3084,86.20936979
3085,41.05474914
3086,-0.351641481
3087,-16.15662214
3088,-9.224999969
3089,-3.836499088
3090,2.050842172
3091,5.686413462
3092,7.615716488
3093,10.07413333
3094,10.98710955
3095,12.88375891
3096,16.08344787
3097,15.98009733
3098,15.70893067
3099,17.80836953
3100,21.23648275
3101,22.44551033
3102,24.51699523
3103,27.68171138
3104,28.27767147
3105,32.04144778
3106,32.78892774
3107,30.50143461
3108,29.96452136
3109,32.49520459
3110,34.22867718
3111,35.43770523
3112,35.30872064
3113,36.96992775
3114,35.82928554
3115,37.56745807
3116,39.59463212
3117,46.36542804
3118,56.27373621
3119,64.78110449
3120,66.82927482
3121,63.34366224
3122,54.99788125
3123,47.71737741
3124,36.62336654
3125,25.76476831
3126,11.10432076
3127,1.721247531
3128,29.76242972
3129,75.94115468
3130,112.8378057
3131,136.9861963
3132,146.9458052
3133,143.7678714
3134,125.4011254
3135,90.11128376
3136,41.57205252
3137,6.927932399
3138,7.213866041
3139,14.54173088
3140,17.78338362
3141,22.86884743
3142,26.34826271
3143,31.45704205
3144,34.88982656
3145,37.2060645
3146,42.87896141
3147,42.36768479
3148,38.31328688
3149,37.79038316
3150,41.64507347
3151,44.27832829
3152,47.12371085
3153,52.34668744
3154,53.01259621
3155,52.89991006
3156,53.53551498
3157,50.30396295
3158,48.86028329
3159,48.92710173
3160,49.80046928
3161,50.06308859
3162,51.4539123
3163,52.83542819
3164,53.96050492
3165,55.92710392
3166,60.13378475
3167,67.35679253
3168,76.86416315
3169,85.16407532
3170,89.39175244
3171,89.28373624
3172,80.3226012
3173,70.05842665
3174,59.81286787
3175,50.68855548
3176,34.15631466
3177,19.03200237
3178,28.53470428
3179,72.6248391
3180,114.3093954
3181,145.0312136
3182,159.06306
3183,161.8594938
3184,150.5696851
3185,122.5083004
3186,76.33735766
3187,37.0195644
3188,24.68312494
3189,35.57977879
3190,37.79811848
3191,39.34278269
3192,39.77093082
3193,43.32258364
3194,49.01644843
3195,49.85716385
3196,51.81210661
3197,54.89992295
3198,55.79422738
3199,55.18041418
3200,54.81834053
3201,55.31637435
3202,57.14546291
3203,58.12137158
3204,62.22548465
3205,63.49509458
3206,66.25188719
3207,61.67536685
3208,60.55572523
3209,61.34282193
3210,61.21851121
3211,59.51143686
3212,60.34516457
3213,60.87118358
3214,63.08018604
3215,62.38013093
3216,66.54717182
3217,64.02427134
3218,72.14703132
3219,81.21153328
3220,88.60699843
3221,91.73445825
3222,92.46094767
3223,88.77252014
3224,80.36848596
3225,70.23016839
3226,64.56041776
3227,52.51069281
3228,37.11596669
3229,27.42753945
3230,49.69251191
3231,92.2138626
3232,128.8937521
3233,155.2193327
3234,168.0530309
3235,167.3110151
3236,150.3498526
3237,116.2884704
3238,69.24576501
3239,35.12841368
3240,32.75001504
3241,39.66067894
3242,40.58763928
3243,45.33744513
3244,46.43225224
3245,49.8766993
3246,51.12534562
3247,56.0359793
3248,60.62495774
3249,64.12534371
3250,65.26211278
3251,63.85573005
3252,62.2162541
3253,63.87517907
3254,62.82078623
3255,64.1416986
3256,64.0570019
3257,65.05155939
3258,61.43307982
3259,60.91948922
3260,58.50843772
3261,56.97153178
3262,58.31109073
3263,61.76252717
3264,63.95056644
3265,67.26681011
3266,69.58305382
3267,69.27460276
3268,64.80529359
3269,65.7858746
3270,64.36551572
3271,65.94982608
3272,74.3430049
3273,81.69886076
3274,88.08737048
3275,92.67400037
3276,91.94129436
3277,87.32049637
3278,79.35002801
3279,68.59400671
3280,56.79370447
3281,45.33605363
3282,30.0951692
3283,27.46738297
3284,63.27544883
3285,107.5916934
3286,143.2855626
3287,166.4782722
3288,175.4075541
3289,164.9918653
3290,142.1566209
3291,100.5520894
3292,53.25761661
3293,26.64612723
3294,33.89010666
3295,39.27394819
3296,41.91187913
3297,44.90643854
3298,47.60729681
3299,48.79301842
3300,53.21415268
3301,56.30896252
3302,62.43407636
3303,62.91114947
3304,64.61200804
3305,64.09143111
3306,64.18621067
3307,63.87544218
3308,59.95856412
3309,59.96713166
3310,60.68196757
3311,62.0401751
3312,62.97180797
3313,59.12020725
3314,57.06816713
3315,56.10935825
3316,56.51184703
3317,57.28030265
3318,55.4030674
3319,58.96174529
3320,60.07520228
3321,63.06509364
3322,64.11562347
3323,64.23606913
3324,62.93692865
3325,60.75201551
3326,60.72793006
3327,60.71550237
3328,62.53522805
3329,71.32001115
3330,77.92297057
3331,85.14830552
3332,85.39228677
3333,83.69922582
3334,74.31149329
3335,63.75594464
3336,51.95332573
3337,41.02247201
3338,28.04968718
3339,21.34496881
3340,38.21831444
3341,86.27580319
3342,123.4568577
3343,151.2509798
3344,165.222226
3345,164.7412628
3346,146.041214
3347,113.9075714
3348,68.00003366
3349,30.18575765
3350,23.61388282
3351,36.38468992
3352,36.53077173
3353,39.82837336
3354,43.83691254
3355,46.87343638
3356,50.80275202
3357,55.15629256
3358,56.34198647
3359,59.50207618
3360,65.16796428
3361,65.2744347
3362,63.41352846
3363,63.67847676
3364,62.7290086
3365,64.60467477
3366,65.51766398
3367,65.19987932
3368,62.54878171
3369,62.81608015
3370,62.97147068
3371,58.25976531
3372,56.36855559
3373,57.93654392
3374,60.8168797
3375,63.15412472
3376,65.78040176
3377,65.23184365
3378,65.82781684
3379,65.96224222
3380,66.15260637
3381,65.89543028
3382,65.35621079
3383,63.4160514
3384,64.07263278
3385,63.06951573
3386,64.24358378
3387,65.18687795
3388,72.7222437
3389,81.15037073
3390,89.17758839
3391,94.03460956
3392,91.24130119
3393,84.38506562
3394,75.24443678
3395,65.32060487
3396,55.12867609
3397,45.54749564
3398,29.77982232
3399,31.27789612
3400,66.28878735
3401,110.4628561
3402,142.650902
3403,162.3214613
3404,167.2017985
3405,160.3129403
3406,137.927561
3407,97.22513471
3408,49.30362276
3409,27.65017726
3410,32.36736779
3411,38.48549831
3412,41.10475804
3413,43.01076097
3414,45.48085087
3415,50.75980922
3416,55.40705375
3417,58.37833398
3418,61.04422484
3419,62.67517313
3420,62.30844081
3421,65.62936111
3422,65.54699168
3423,66.49495676
3424,66.27739454
3425,66.18107871
3426,67.25489843
3427,65.40565301
3428,61.08085222
3429,55.84232467
3430,53.16324541
3431,53.26504998
3432,53.02652257
3433,54.75070273
3434,55.65902601
3435,55.35757149
3436,57.75539682
3437,60.18120681
3438,58.02892236
3439,56.51067116
3440,56.20689756
3441,57.11055198
3442,57.65989736
3443,54.7663717
3444,55.9893622
3445,52.06321334
3446,52.51230867
3447,52.85654565
3448,48.08188619
3449,47.68720115
3450,51.6071829
3451,56.18915201
3452,65.94595637
3453,76.59555252
3454,82.69036967
3455,83.93667612
3456,84.31588668
3457,77.17526086
3458,66.14651252
3459,56.30657649
3460,47.85595325
3461,27.80623949
3462,20.3765514
3463,44.54363461
3464,87.50090951
3465,125.6912777
3466,152.4480827
3467,161.6501393
3468,158.2624132
3469,140.9469832
3470,108.020805
3471,60.17855025
3472,29.24538364
3473,30.03948148
3474,41.24385769
3475,43.52281891
3476,46.21434731
3477,47.87328299
3478,50.96340158
3479,52.6409836
3480,56.70314818
3481,60.69539704
3482,63.94872383
3483,67.22765491
3484,70.74672886
3485,70.92544032
3486,70.43517599
3487,70.73977254
3488,67.88586085
3489,67.4142429
3490,66.57198902
3491,63.76470832
3492,61.22079438
3493,57.95663512
3494,57.72976839
3495,55.74298349
3496,53.42755484
3497,54.49207009
3498,56.92951019
3499,59.77258999
3500,60.63663541
3501,60.40509983
3502,62.0919908
3503,60.98865966
3504,60.6522353
3505,56.43467695
3506,54.21714917
3507,53.60100084
3508,54.31117701
3509,53.40599679
3510,54.84813717
3511,56.20400441
3512,56.34310533
3513,59.51949879
3514,64.80545039
3515,72.03079414
3516,82.64773949
3517,88.24606917
3518,91.64621775
3519,88.70606486
3520,79.11790176
3521,67.80244379
3522,54.55229349
3523,45.33241667
3524,28.79085411
3525,34.30523031
3526,72.29049279
3527,112.1941513
3528,144.4474803
3529,161.0038184
3530,165.264136
3531,158.1445098
3532,132.4724239
3533,94.7676843
3534,48.82286294
3535,32.36522424
3536,34.74208876
3537,35.39400827
3538,37.24639779
3539,39.09414869
3540,43.59454856
3541,49.5121848
3542,50.91468438
3543,56.84632829
3544,62.93883041
3545,64.57909258
3546,62.36620538
3547,65.05541784
3548,65.83322288
3549,66.68326307
3550,66.1277247
3551,65.93116465
3552,65.14021378
3553,65.67790675
3554,64.93123698
3555,62.07732848
3556,60.71527184
3557,62.69119743
3558,61.54590724
3559,59.67103336
3560,59.99427965
3561,60.70912754
3562,62.43099453
3563,63.4838247
3564,65.0588412
3565,66.99979402
3566,63.14823591
3567,63.71855284
3568,64.39845844
3569,65.38839217
3570,65.26406813
3571,60.63626514
3572,57.6145413
3573,59.51820202
3574,64.85777588
3575,70.87334466
3576,75.52526603
3577,85.24710321
3578,92.79648561
3579,96.82368178
3580,90.78096222
3581,79.48418388
3582,67.10580158
3583,58.29852528
3584,49.113594
3585,35.99863958
3586,26.35219106
3587,46.05538248
3588,89.52316136
3589,128.5969889
3590,155.9598789
3591,169.9427947
3592,164.354635
3593,148.1021382
3594,112.679445
3595,67.86984992
3596,33.51478372
3597,28.07811356
3598,37.44567318
3599,39.50085492
3600,41.62830234
3601,44.49934111
3602,42.80159331
3603,48.45818516
3604,51.64392134
3605,57.08603574
3606,61.77992021
3607,65.22206523
3608,65.14205453
3609,67.73336956
3610,66.16385701
3611,67.55003297
3612,63.52831104
3613,63.14758037
3614,62.78320716
3615,62.56565408
3616,59.86326827
3617,55.64339594
3618,50.64730906
3619,50.51136017
3620,48.34043818
3621,51.11824671
3622,48.84707457
3623,48.59457923
3624,51.56583883
3625,53.83549936
3626,52.91399782
3627,52.13934691
3628,52.42997316
3629,54.47349862
3630,56.34221944
3631,55.8169889
3632,52.26377378
3633,49.43785363
3634,48.96621209
3635,50.65777861
3636,54.49152658
3637,63.34624017
3638,74.42007001
3639,83.60113868
3640,86.66566076
3641,81.96327615
3642,71.73406663
3643,60.24149047
3644,51.86311113
3645,40.7178251
3646,24.21124151
3647,21.96106666
3648,55.37989821
3649,99.67052545
3650,133.7490251
3651,157.1724954
3652,165.2882876
3653,157.8213467
3654,140.5478567
3655,102.5214677
3656,54.61629447
3657,27.46868968
3658,28.86185642
3659,36.1664612
3660,38.24496128
3661,42.74536694
3662,48.27143792
3663,50.52477336
3664,55.38415742
3665,55.03373319
3666,57.89546721
3667,64.1371146
3668,66.54895858
3669,69.90718321
3670,73.48217426
3671,76.70987531
3672,77.19163525
3673,75.46126755
3674,72.28104028
3675,67.59962287
3676,67.47533441
3677,65.79159776
3678,60.92371809
3679,58.39382065
3680,59.81497306
3681,61.93543582
3682,61.79250141
3683,63.00851481
3684,64.77933782
3685,64.33568334
3686,64.95730601
3687,63.30854298
3688,62.23320529
3689,63.60073875
3690,60.0195723
3691,59.79271498
3692,58.78030473
3693,57.34131982
3694,63.54570655
3695,69.45871148
3696,81.58381363
3697,91.00264751
3698,94.99023755
3699,92.83097705
3700,83.30343047
3701,75.40289809
3702,64.74946659
3703,53.78368772
3704,42.58478513
3705,28.25303956
3706,44.74178965
3707,89.3074746
3708,126.6866972
3709,154.9260273
3710,170.5709665
3711,170.0690552
3712,153.8142143
3713,121.1258102
3714,76.81039193
3715,34.83994445
3716,26.67833491
3717,39.36755549
3718,42.05445679
3719,46.89986643
3720,49.0179812
3721,48.48344709
3722,49.08874458
3723,53.28147497
3724,58.01964608
3725,59.76483629
3726,62.32118377
3727,64.78198076
3728,68.27772042
3729,69.87837957
3730,70.38809638
3731,69.960771
3732,68.69430382
3733,68.37186746
3734,66.80703002
3735,62.55450952
3736,59.71925591
3737,57.42947354
3738,59.02079474
3739,58.99440969
3740,62.59040017
3741,65.72484285
3742,65.47934173
3743,67.0729825
3744,68.95101663
3745,69.56333425
3746,72.03578986
3747,72.3543759
3748,73.29069879
3749,72.38086085
3750,76.88593994
3751,83.09029887
3752,87.95902552
3753,94.18904982
3754,98.2675544
3755,101.0686542
3756,99.88843089
3757,94.96693561
3758,83.14334077
3759,68.89549061
3760,58.99499157
3761,48.68653359
3762,32.56456858
3763,39.22348741
3764,84.59105496
3765,127.4201399
3766,157.3004944
3767,175.4582538
3768,173.6906286
3769,158.9369501
3770,130.5935499
3771,89.67904385
3772,44.70859909
3773,28.25332162
3774,42.22690772
3775,44.79027658
3776,46.12287156
3777,46.90532622
3778,50.04675919
3779,51.82457526
3780,53.90540042
3781,58.76479008
3782,63.02045054
3783,65.30876485
3784,70.17981237
3785,70.31892634
3786,71.99182331
3787,69.662401
3788,71.06494285
3789,66.86836365
3790,65.84896956
3791,66.7689676
3792,63.61673059
3793,59.44346701
3794,57.16534508
3795,54.16691681
3796,54.18249615
3797,53.41252255
3798,55.21829364
3799,54.40635847
3800,55.66668898
3801,58.57502979
3802,57.7490872
3803,58.48027356
3804,59.40027223
3805,61.93333857
3806,63.81604485
3807,72.83861324
3808,82.59775394
3809,89.98162004
3810,93.03684238
3811,95.9684991
3812,90.89313682
3813,78.79217034
3814,66.68186553
3815,56.14498606
3816,41.63841059
3817,32.41387863
3818,42.27561991
3819,87.06274576
3820,127.0013914
3821,160.1428265
3822,176.0045679
3823,176.2135995
3824,165.0426872
3825,137.6480202
3826,95.66592027
3827,55.04511803
3828,38.87887517
3829,51.09025687
3830,52.6349516
3831,53.39879311
3832,54.95981484
3833,56.33202437
3834,56.93265801
3835,60.1603669
3836,65.59086514
3837,69.13787955
3838,70.93434468
3839,74.5256707
3840,74.28252412
3841,74.67338027
3842,75.57473451
3843,71.31059197
3844,69.08838064
3845,68.24147452
3846,69.38992979
3847,68.06984872
3848,66.44669763
3849,66.18722457
3850,65.96736338
3851,65.50043192
3852,65.08010085
3853,63.64344292
3854,64.87115272
3855,66.08952418
3856,67.06079486
3857,64.45867082
3858,63.62342304
3859,65.54806301
3860,72.41911415
3861,78.2109112
3862,87.70201859
3863,93.78519757
3864,95.08514295
3865,91.73707813
3866,79.28879362
3867,65.72628187
3868,52.6742377
3869,40.71545529
3870,30.7054034
3871,26.47153564
3872,52.23537911
3873,98.35118185
3874,130.7979783
3875,153.0839472
3876,161.682294
3877,158.0125439
3878,138.0467734
3879,102.4073274
3880,60.88442814
3881,32.93498468
3882,29.25125783
3883,38.32274953
3884,37.11222833
3885,35.87140323
3886,38.11773028
3887,43.00977881
3888,47.07895141
3889,45.58870634
3890,50.2895929
3891,56.05807595
3892,51.39766501
3893,52.5624189
3894,51.9649353
3895,50.03413875
3896,52.45530148
3897,56.02563418
3898,57.28596937
3899,55.78406706
3900,58.67608569
3901,55.70100843
3902,50.18509869
3903,50.86035111
3904,49.2092486
3905,48.75629677
3906,45.59704616
3907,46.15807148
3908,44.84730119
3909,45.51089618
3910,45.13256007
3911,41.36723059
3912,44.18701469
3913,51.44966994
3914,55.31138528
3915,64.73022959
3916,73.43578658
3917,81.31849817
3918,77.97510507
3919,72.47552305
3920,60.65425528
3921,47.9215801
3922,38.45697136
3923,26.60076112
3924,7.185102675
3925,10.58063203
3926,50.30947441
3927,98.280779
3928,131.6273583
3929,152.5683285
3930,159.9871735
3931,152.4526495
3932,126.7479289
3933,84.37423256
3934,34.41545326
3935,8.214242367
3936,14.20416311
3937,23.10552189
3938,22.81574913
3939,22.59821152
3940,28.34106215
3941,34.05128953
3942,37.93632164
3943,42.51599492
3944,42.88589041
3945,43.5261717
3946,50.22242226
3947,51.69952615
3948,48.02746017
3949,47.39036737
3950,52.77887887
3951,56.45880278
3952,55.25060417
3953,55.08436728
3954,52.68268732
3955,53.64932406
3956,53.48308732
3957,50.39375492
3958,46.05503291
3959,47.70929192
3960,51.78780634
3961,53.5329773
3962,53.2991444
3963,57.52917874
3964,61.03893725
3965,67.03120924
3966,68.17265119
3967,76.87586077
3968,84.46487362
3969,95.19838725
3970,98.34217925
3971,97.15961632
3972,91.82788351
3973,82.81316735
3974,72.84038239
3975,60.85828962
3976,46.13727478
3977,31.66336081
3978,28.99129626
3979,56.67354083
3980,104.5842095
3981,149.5764823
3982,178.0349416
3983,191.1484303
3984,186.0521106
3985,163.5082508
3986,120.4702198
3987,68.97299087
3988,33.31957303
3989,29.61952439
3990,39.7446711
3991,45.31268896
3992,44.99026497
3993,46.70281417
3994,51.06105433
3995,54.5265028
3996,54.35562929
3997,56.73950437
3998,60.50799253
3999,64.8475867
4000,67.15919629
4001,66.654949
4002,67.76611923
4003,68.52761911
4004,70.3147538
4005,66.66600596
4006,65.01255847
4007,64.18665619
4008,63.58453936
4009,60.68869089
4010,58.44784125
4011,55.61028144
4012,59.1060652
4013,61.31742517
4014,62.92041727
4015,63.03390746
4016,65.33852929
4017,64.61751641
4018,63.51420987
4019,65.98432867
4020,69.53837086
4021,75.1576902
4022,84.78631745
4023,94.42428312
4024,98.72423615
4025,96.74449562
4026,88.35679615
4027,75.75001104
4028,64.16651089
4029,57.93268119
4030,44.00887962
4031,27.61187253
4032,31.36171608
4033,72.94371299
4034,121.0898579
4035,155.4597272
4036,172.1140204
4037,177.6610749
4038,167.8164973
4039,144.3938559
4040,101.0900804
4041,52.00777107
4042,27.0746317
4043,37.8477912
4044,43.14774518
4045,41.90457787
4046,41.64044503
4047,45.81921385
4048,49.66695855
4049,56.54732659
4050,60.73076475
4051,65.55986335
4052,64.45420858
4053,66.99195596
4054,62.35483767
4055,60.83429657
4056,61.42331363
4057,61.53680583
4058,57.67825218
4059,58.40246225
4060,56.36208496
4061,59.36369991
4062,54.15315671
4063,50.19673342
4064,47.79737806
4065,50.53092679
4066,52.53251146
4067,53.04926342
4068,49.78745097
4069,51.4347267
4070,49.54355033
4071,50.24444555
4072,47.29034203
4073,45.64159744
4074,47.6152284
4075,54.0270613
4076,61.80956076
4077,67.48714083
4078,69.53303759
4079,68.93089364
4080,63.81593235
4081,55.72895572
4082,46.71424477
4083,34.98157733
4084,25.51697633
4085,12.82624014
4086,5.687994221
4087,19.89703839
4088,64.0338475
4089,102.5855431
4090,132.6058057
4091,145.7449343
4092,146.5553886
4093,130.7411177
4094,100.523618
4095,54.3760341
4096,18.19579648
4097,5.724207582
4098,15.87499422
4099,16.67147183
4100,17.65673122
4101,21.38329315
4102,27.65526528
4103,31.3002233
4104,35.73305369
4105,39.14259921
4106,41.82716919
4107,41.2203879
4108,41.28957101
4109,41.15364553
4110,40.06667029
4111,44.88179471
4112,47.73186181
4113,48.55864404
4114,49.45067289
4115,49.59679116
4116,47.49815849
4117,44.69789623
4118,42.80907201
4119,41.64516239
4120,43.01970496
4121,47.38030105
4122,48.27699948
4123,48.34618331
4124,49.31282813
4125,50.05336826
4126,49.86147435
4127,48.084528
4128,47.28191642
4129,49.55160102
4130,57.10329861
4131,62.44524894
4132,68.54006797
4133,77.04049617
4134,84.69479405
4135,81.56350849
4136,73.38797248
4137,61.83478149
4138,49.48907956
4139,41.58157959
4140,32.90253425
4141,14.8388454
4142,15.95701085
4143,58.46210873
4144,105.6688363
4145,142.4116967
4146,165.2524576
4147,170.7272517
4148,161.0691723
4149,132.6605131
4150,90.32411963
4151,38.57045934
4152,12.04525369
4153,18.72051805
4154,24.59625244
4155,27.93585406
4156,29.83023478
4157,32.93671271
4158,36.44648049
4159,40.16135696
4160,43.5382513
4161,44.6540678
4162,48.06361604
4163,48.33327176
4164,48.86168606
4165,48.14068025
4166,49.51757487
4167,53.42825251
4168,55.61633497
4169,57.97925269
4170,56.55426762
4171,55.45563758
4172,57.43159255
4173,52.49382077
4174,51.16905562
4175,52.27089574
4176,55.44967073
4177,57.49090303
4178,58.9703373
4179,60.30527087
4180,60.8150397
4181,57.66279076
4182,57.2284984
4183,54.52613969
4184,59.28065969
4185,67.16338408
4186,78.43536022
4187,88.31808471
4188,93.26840568
4189,93.02527577
4190,85.11542838
4191,73.80702146
4192,62.55455332
4193,49.57945948
4194,38.03325974
4195,16.8110957
4196,23.4583775
4197,67.9495009
4198,115.4779168
4199,156.0319676
4200,181.8540848
4201,190.3428585
4202,180.6917702
4203,152.618807
4204,104.1612003
4205,47.70124374
4206,21.29493715
4207,24.51097558
4208,28.85057973
4209,33.93377524
4210,38.95401303
4211,43.93231972
4212,49.46073631
4213,55.06605726
4214,54.88817512
4215,56.1018946
4216,53.74920787
4217,55.49906026
4218,55.04145419
4219,55.43464774
4220,57.60408645
4221,58.53576275
4222,59.91034072
4223,62.42243094
4224,62.12800265
4225,61.71235859
4226,64.30834178
4227,66.52673101
4228,61.72415473
4229,62.50431164
4230,64.81126303
4231,65.53084265
4232,65.43920405
4233,65.29394611
4234,63.40509692
4235,62.95216086
4236,65.92344969
4237,67.0696043
4238,68.35092131
4239,78.6392269
4240,86.55692706
4241,94.12962605
4242,94.63939784
4243,91.76687598
4244,83.55634147
4245,73.89362806
4246,63.28682289
4247,50.2441352
4248,36.44854839
4249,22.23569479
4250,28.80375554
4251,75.68181389
4252,122.6554228
4253,159.545139
4254,180.453532
4255,183.6998766
4256,168.715478
4257,136.1716311
4258,86.93079329
4259,38.02097971
4260,17.6146757
4261,27.74914323
4262,33.01648433
4263,34.44465313
4264,37.01036469
4265,36.78585413
4266,39.60565515
4267,44.66785733
4268,47.17531103
4269,51.64776111
4270,52.5817591
4271,54.79084258
4272,55.58030941
4273,53.3418527
4274,53.63015995
4275,51.35438034
4276,51.3210019
4277,53.79348289
4278,56.80441607
4279,59.13935442
4280,60.31111533
4281,61.3570218
4282,62.65231797
4283,62.94996403
4284,60.18700223
4285,59.73873775
4286,59.65177092
4287,60.81422431
4288,60.90441211
4289,60.03888097
4290,61.07776883
4291,62.52693505
4292,64.98540918
4293,70.07327789
4294,77.08186199
4295,88.4168011
4296,91.8566597
4297,91.28714946
4298,85.26079111
4299,76.0805937
4300,65.54138755
4301,55.42411748
4302,44.68215264
4303,31.38537828
4304,23.84153364
4305,47.89909897
4306,96.82144096
4307,140.0048609
4308,171.8712642
4309,189.4649626
4310,186.1845154
4311,168.2047886
4312,130.1597541
4313,76.46439017
4314,33.53361365
4315,26.66341456
4316,33.04965473
4317,32.87409685
4318,35.899009
4319,41.94958647
4320,42.7833366
4321,46.15791929
4322,49.0616158
4323,52.70893419
4324,55.11845966
4325,59.36480768
4326,58.22657323
4327,59.26082418
4328,57.71930003
4329,59.7442127
4330,57.0744843
4331,55.54464853
4332,55.7094234
4333,57.12828768
4334,56.80588002
4335,59.0615669
4336,61.8184135
4337,63.63122938
4338,63.66081167
4339,65.81157931
4340,64.55444904
4341,61.58638132
4342,61.27795111
4343,61.93689765
4344,61.60750195
4345,61.51589927
4346,63.34034278
4347,65.20909786
4348,69.15707662
4349,75.58524952
4350,82.58687827
4351,87.49292603
4352,93.14720381
4353,92.91103974
4354,88.77747582
4355,78.53432332
4356,67.37274436
4357,55.40232755
4358,45.00768594
4359,30.72492182
4360,20.22768021
4361,40.45306437
4362,94.17960826
4363,138.7966246
4364,174.5651302
4365,191.9233881
4366,191.4960931
4367,170.2622796
4368,133.7720269
4369,75.69440237
4370,27.66569761
4371,16.82815501
4372,28.14445157
4373,29.22765491
4374,33.95419937
4375,37.35206955
4376,39.8758248
4377,44.03596315
4378,50.44781053
4379,51.46808691
4380,55.26689728
4381,59.04938079
4382,61.49156284
4383,57.52114727
4384,56.2523614
4385,56.48006605
4386,56.25559179
4387,55.73503604
4388,58.6107816
4389,59.97837902
4390,57.97064079
4391,58.4804197
4392,58.09276824
4393,53.65848597
4394,54.38271204
4395,58.30737762
4396,60.67030619
4397,62.15676995
4398,64.45674085
4399,62.31850989
4400,59.14527531
4401,59.73897804
4402,59.52146256
4403,57.48577085
4404,56.10745834
4405,59.41673743
4406,62.35309177
4407,71.0306876
4408,81.16519267
4409,90.57704153
4410,92.10546759
4411,91.80405971
4412,82.51894827
4413,71.70005391
4414,59.65737421
4415,47.75455661
4416,37.02190507
4417,24.1913532
4418,23.69411435
4419,58.84958552
4420,108.5225433
4421,153.4821833
4422,179.4068807
4423,193.6905258
4424,186.2096447
4425,160.1553078
4426,116.6347844
4427,62.45691248
4428,28.72890019
4429,29.16876515
4430,39.6342344
4431,44.3234891
4432,51.217883
4433,57.83722203
4434,60.33299542
4435,65.45117487
4436,70.50172742
4437,74.12106663
4438,78.18559632
4439,77.74899691
4440,78.16319711
4441,76.41421987
4442,77.17107153
4443,75.79739955
4444,77.93654501
4445,79.67475057
4446,82.24514002
4447,80.13254612
4448,79.12716052
4449,76.19870978
4450,74.68749541
4451,73.59119809
4452,73.8375827
4453,74.04432502
4454,78.4049065
4455,77.91001928
4456,79.44311673
4457,75.68248253
4458,73.04306421
4459,70.95143645
4460,68.43558389
4461,66.8497851
4462,64.59964919
4463,62.95791176
4464,63.80567634
4465,64.83526469
4466,73.10728474
4467,80.02731508
4468,86.39723561
4469,88.93964154
4470,86.00185342
4471,78.33448162
4472,68.53188647
4473,55.20716612
4474,44.19479324
4475,32.85609594
4476,17.49872193
4477,15.46538361
4478,49.36676824
4479,101.0187328
4480,141.6520511
4481,168.8145137
4482,179.8930531
4483,171.0811506
4484,146.6072303
4485,103.1543062
4486,46.2724576
4487,12.36500477
4488,14.20343211
4489,22.28197181
4490,24.34421516
4491,26.32949324
4492,27.51994104
4493,29.00405954
4494,31.59074767
4495,34.39423272
4496,35.25600639
4497,38.70518246
4498,43.86529607
4499,46.71538166
4500,50.93378394
4501,50.74660766
4502,52.38691555
4503,50.64029112
4504,49.80272436
4505,48.89292254
4506,47.03674014
4507,47.28776605
4508,48.51083791
4509,50.55208608
4510,53.62595759
4511,56.48306279
4512,59.32149128
4513,58.31845864
4514,57.61379641
4515,56.75758393
4516,54.77319767
4517,53.35521771
4518,54.42677026
4519,55.04379406
4520,55.49529056
4521,55.39200805
4522,55.90411256
4523,55.87776497
4524,59.17542255
4525,67.54766513
4526,77.57026788
4527,86.18027301
4528,90.73433948
4529,87.31172142
4530,80.85879945
4531,69.11214584
4532,58.22798007
4533,48.12936733
4534,38.33611352
4535,24.28413174
4536,26.75662509
4537,65.12886826
4538,110.6805853
4539,146.1950405
4540,169.1476976
4541,177.4779793
4542,170.0530425
4543,146.7865836
4544,105.4781936
4545,57.42386239
4546,30.19237674
4547,34.53898561
4548,39.49866216
4549,38.82427504
4550,40.8678445
4551,45.54080855
4552,49.45617377
4553,52.86339084
4554,57.23563481
4555,61.85262981
4556,64.001119
4557,66.64841805
4558,68.77591123
4559,67.96401238
4560,71.38987603
4561,72.22134885
4562,69.92226752
4563,68.77235617
4564,70.03504251
4565,67.52386416
4566,62.98933991
4567,60.03757938
4568,58.98559917
4569,59.46041344
4570,62.14735545
4571,62.44034608
4572,63.28811582
4573,66.87715758
4574,69.37293766
4575,67.00626052
4576,64.75381072
4577,62.17967518
4578,59.18827284
4579,58.43231366
4580,57.97008622
4581,59.61039789
4582,65.89871987
4583,72.63229335
4584,82.39382099
4585,89.54460038
4586,90.42270526
4587,84.95110925
4588,74.44923986
4589,64.06159781
4590,53.18210401
4591,43.15109047
4592,32.53264412
4593,17.49931135
4594,26.21655845
4595,69.65408149
4596,112.2174591
4597,143.1841265
4598,160.8594121
4599,165.0475152
4600,152.8789593
4601,123.0460969
4602,76.86588346
4603,29.34536854
4604,13.89943864
4605,25.07121508
4606,29.95627892
4607,30.96023929
4608,33.88262623
4609,36.35509256
4610,36.78794712
4611,39.77558078
4612,41.66766395
4613,46.66460557
4614,53.00657897
4615,55.99421282
4616,60.12170878
4617,58.99978463
4618,58.20885417
4619,56.45057757
4620,55.65732787
4621,54.32095688
4622,50.4251377
4623,49.38713716
4624,47.35612521
4625,45.26218605
4626,45.10061999
4627,43.86916872
4628,45.2181008
4629,47.99827682
4630,49.74814894
4631,47.21365831
4632,46.39010523
4633,46.66909126
4634,46.72200312
4635,44.78657274
4636,44.34531356
4637,43.3515947
4638,44.00588615
4639,44.21498721
4640,45.62919696
4641,51.14597634
4642,60.19885807
4643,67.74127231
4644,76.46319099
4645,76.40419542
4646,73.30094941
4647,64.27692707
4648,51.51163281
4649,38.29180979
4650,28.45196119
4651,17.74727498
4652,8.224443071
4653,25.59437244
4654,74.08081797
4655,114.3575162
4656,144.0747663
4657,157.6171812
4658,154.5651748
4659,135.193863
4660,104.1301989
4661,62.51410574
4662,27.44580312
4663,22.66189385
4664,33.48867189
4665,37.16396072
4666,38.86955355
4667,41.83155512
4668,43.11289268
4669,43.23340264
4670,51.16741974
4671,57.43944958
4672,63.94692258
4673,68.08372912
4674,69.66810652
4675,72.04502546
4676,70.5664757
4677,71.71027097
4678,70.88672008
4679,69.75549103
4680,69.75246636
4681,67.38579429
4682,65.31047358
4683,63.76899691
4684,63.16688186
4685,60.80487916
4686,59.00229424
4687,59.78247303
4688,60.21768118
4689,57.52233516
4690,55.5752497
4691,55.69341086
4692,57.07033062
4693,55.72230536
4694,54.93839757
4695,52.94700082
4696,54.05585437
4697,59.90131074
4698,68.27823078
4699,76.7110896
4700,82.99709787
4701,83.07097851
4702,79.86281574
4703,68.42622894
4704,58.35090928
4705,45.61595222
4706,37.23762362
4707,30.14368838
4708,20.2968235
4709,37.5875014
4710,82.23947695
4711,118.8751256
4712,147.1121843
4713,164.3212889
4714,166.0664958
4715,149.1357079
4716,120.6408332
4717,79.13430078
4718,38.96810044
4719,29.0606587
4720,40.68931929
4721,43.08021749
4722,47.69258179
4723,53.43778916
4724,53.25294287
4725,56.88160371
4726,61.70606537
4727,66.98508641
4728,71.15223006
4729,72.55478635
4730,74.83380753
4731,76.88437417
4732,75.99322943
4733,74.84567605
4734,74.00116227
4735,79.13330259
4736,81.12094222
4737,84.01071203
4738,83.79788179
4739,80.24938875
4740,78.34426735
4741,76.90066332
4742,76.01882692
4743,74.54961875
4744,74.14562668
4745,76.82558852
4746,76.95309069
4747,77.95238857
4748,76.14748727
4749,71.89736507
4750,71.95028247
4751,74.2479509
4752,81.34283007
4753,89.54723687
4754,97.08266789
4755,102.8232381
4756,102.5498008
4757,96.38592169
4758,87.97729162
4759,76.03487864
4760,64.97124989
4761,55.37612705
4762,41.0724166
4763,36.86889542
4764,63.65841627
4765,105.1798402
4766,138.87613
4767,160.6236588
4768,172.3758874
4769,169.2259859
4770,148.8546794
4771,113.8959401
4772,66.19592882
4773,35.43997891
4774,36.47425122
4775,41.0842682
4776,41.78287776
4777,45.57004939
4778,49.46445982
4779,52.4683979
4780,55.29753133
4781,55.22224587
4782,56.97914429
4783,60.81059721
4784,64.09194031
4785,64.63436133
4786,66.87377338
4787,69.18075138
4788,66.69985712
4789,63.95092702
4790,62.68216055
4791,55.259555
4792,54.35208623
4793,54.33972859
4794,52.82386147
4795,49.56443361
4796,51.09287811
4797,51.55604556
4798,52.26396403
4799,51.57796166
4800,51.66350474
4801,51.80733644
4802,55.06768431
4803,53.82223388
4804,52.35998663
4805,50.77188493
4806,53.52411531
4807,57.17841483
4808,62.30125077
4809,70.79008408
4810,77.76140034
4811,81.55324278
4812,78.59215557
4813,69.42595978
4814,60.84017784
4815,48.61572408
4816,37.24206993
4817,25.90103912
4818,10.35953838
4819,17.3588397
4820,56.89427387
4821,96.91222152
4822,126.6131526
4823,146.4819304
4824,151.3087161
4825,140.2684059
4826,115.5847242
4827,77.19007444
4828,33.52040035
4829,14.34718627
4830,22.09706795
4831,22.3178359
4832,23.53158485
4833,27.58215637
4834,28.57446987
4835,30.25443601
4836,34.20011875
4837,40.28798294
4838,44.25234253
4839,48.0931365
4840,49.40945542
4841,52.42740403
4842,55.49430288
4843,55.65678283
4844,55.19920667
4845,55.30339814
4846,53.5567901
4847,53.16681053
4848,51.6019958
4849,50.19105074
4850,49.3581697
4851,50.64418519
4852,47.30318656
4853,47.67776416
4854,51.53720509
4855,52.36170343
4856,52.83653142
4857,52.48149495
4858,51.95400369
4859,51.92999148
4860,50.77545565
4861,54.1803681
4862,58.57826155
4863,67.0764053
4864,73.8426155
4865,76.24282844
4866,77.89249211
4867,70.46754034
4868,61.79319898
4869,52.06987695
4870,41.21371195
4871,33.88901062
4872,19.38016627
4873,18.38877803
4874,54.88225311
4875,98.65078318
4876,133.0696734
4877,152.6680375
4878,158.0193314
4879,149.0442704
4880,123.6356461
4881,83.59765792
4882,35.96292904
4883,11.03916823
4884,15.84267187
4885,20.42239015
4886,23.04638949
4887,25.56318063
4888,27.4016576
4889,30.47322788
4890,32.90609582
4891,37.45084125
4892,41.41285357
4893,44.72685569
4894,47.33455902
4895,49.18933272
4896,51.34714601
4897,53.94319177
4898,53.95647391
4899,52.53854272
4900,51.70334473
4901,49.92640484
4902,48.4595236
4903,48.3586092
4904,46.0315596
4905,41.81409866
4906,41.67818074
4907,43.61922821
4908,43.17798201
4909,42.24253421
4910,43.89451931
4911,43.6141009
4912,43.68567229
4913,44.96470221
4914,47.70759937
4915,53.13116064
4916,60.05585111
4917,67.48173182
4918,68.40178371
4919,67.37078585
4920,62.72443159
4921,52.63746458
4922,41.84657917
4923,32.52419966
4924,22.91278822
4925,7.842148305
4926,8.633996235
4927,44.84311106
4928,88.12913023
4929,124.9792364
4930,147.4680754
4931,154.5046746
4932,143.1053607
4933,119.4869612
4934,79.78463833
4935,35.23615466
4936,11.34968886
4937,16.77322066
4938,23.63733479
4939,26.3173059
4940,28.98326949
4941,31.01986911
4942,31.05881864
4943,37.68050137
4944,42.09939483
4945,47.74671242
4946,51.19124075
4947,53.89217782
4948,55.09894379
4949,56.44557187
4950,58.82482329
4951,59.2879981
4952,60.20805162
4953,61.37288668
4954,59.88733116
4955,58.33417926
4956,57.62254962
4957,54.68713463
4958,52.19227144
4959,53.4083458
4960,54.71536259
4961,53.91977933
4962,56.6090594
4963,57.58740202
4964,57.84543829
4965,57.15477465
4966,58.44546483
4967,60.62424709
4968,65.6818441
4969,73.68115258
4970,81.58256071
4971,85.40703409
4972,84.21753045
4973,79.92780714
4974,70.79891152
4975,59.74692024
4976,50.55976665
4977,42.80150715
4978,28.20172549
4979,22.49476614
4980,48.72017988
4981,90.91293986
4982,122.6022514
4983,148.298521
4984,156.1532989
4985,151.4160054
4986,134.6927195
4987,100.1628845
4988,54.60973422
4989,22.44589668
4990,22.67829943
4991,29.88506745
4992,30.80744222
4993,34.54802382
4994,34.46109082
4995,37.65620132
4996,42.13570518
4997,44.78302526
4998,50.32545646
4999,54.1569197
5000,60.1259257
5001,61.13457409
5002,62.6233861
5003,63.55509977
5004,63.40289015
5005,62.56769718
5006,61.26866758
5007,58.97192685
5008,57.7801056
5009,55.26891795
5010,54.09339318
5011,52.65447125
5012,52.55356206
5013,52.37336825
5014,55.72234929
5015,58.07129986
5016,61.08925683
5017,63.27039133
5018,63.23707886
5019,61.86108456
5020,64.46879391
5021,69.44247011
5022,77.96625622
5023,85.68584316
5024,90.98117478
5025,89.67048838
5026,85.70709206
5027,78.69239574
5028,66.98775807
5029,57.36469393
5030,50.3570168
5031,39.49850964
5032,44.74956063
5033,81.80716074
5034,121.3775783
5035,153.6426065
5036,175.9542656
5037,183.3755133
5038,176.428414
5039,155.2575598
5040,116.0144705
5041,70.95317455
5042,45.4163537
5043,49.40400801
5044,52.08398413
5045,55.82685704
5046,58.24575538
5047,63.26838302
5048,71.78750118
5049,76.49311231
5050,74.94698399
5051,74.40549438
5052,72.48406098
5053,70.01251776
5054,64.01414964
5055,56.84097688
5056,48.72139303
5057,48.72772476
5058,51.95314223
5059,52.51889178
5060,52.49253932
5061,53.398621
5062,54.34431454
5063,53.60238606
5064,51.14015122
5065,47.39355365
5066,47.70988336
5067,52.08447119
5068,55.16303855
5069,56.08776684
5070,58.22462288
5071,58.81600776
5072,61.50294324
5073,64.95449668
5074,73.25681921
5075,82.39599481
5076,91.75428668
5077,93.45056077
5078,90.20747333
5079,82.90841671
5080,71.76551858
5081,60.06320277
5082,49.98094317
5083,35.39517409
5084,29.33156082
5085,55.44974081
5086,104.5982553
5087,142.4436998
5088,172.228567
5089,184.7850101
5090,180.2062299
5091,162.1659018
5092,125.3726747
5093,76.05497248
5094,39.11257551
5095,37.88810461
5096,48.72891086
5097,49.89372228
5098,53.60400495
5099,55.87370538
5100,57.74481577
5101,60.27095551
5102,61.3005743
5103,62.62389431
5104,65.79102541
5105,68.233242
5106,66.16727992
5107,65.65844681
5108,65.7929548
5109,64.30276802
5110,61.99904368
5111,61.65570758
5112,60.06993989
5113,57.8967699
5114,53.08022837
5115,47.90705848
5116,47.45880318
5117,46.90333968
5118,43.46442286
5119,41.07912547
5120,39.3045459
5121,40.00317195
5122,39.28453119
5123,38.09503478
5124,35.71672615
5125,40.55988364
5126,50.02306681
5127,54.15757571
5128,54.1965036
5129,51.4615668
5130,44.61472208
5131,36.3622988
5132,25.2543763
5133,14.06954955
5134,3.472125195
5135,-13.49358525
5136,-22.82059325
5137,2.598278921
5138,49.04748561
5139,87.34984177
5140,114.6498481
5141,125.6118723
5142,121.3338148
5143,101.1419695
5144,63.75435397
5145,10.3900234
5146,-27.31927783
5147,-29.86076285
5148,-22.50713673
5149,-21.73859358
5150,-19.2451053
5151,-17.4089351
5152,-14.49122188
5153,-11.50356232
5154,-6.769961554
5155,-2.922163962
5156,0.38718153
5157,3.659234589
5158,6.768110206
5159,8.860658966
5160,10.33782081
5161,13.01313334
5162,15.84463488
5163,16.33577392
5164,15.65909684
5165,12.54885658
5166,9.478258704
5167,8.009040269
5168,8.360348004
5169,10.60908621
5170,15.10489477
5171,23.39559474
5172,30.00563069
5173,35.2170766
5174,36.50542686
5175,35.60264558
5176,39.07285018
5177,44.36351992
5178,47.24162256
5179,50.39481071
5180,48.83001184
5181,45.16267395
5182,35.719091
5183,26.14031522
5184,13.38206562
5185,5.299810931
5186,-0.500400249
5187,-13.19572247
5188,-6.457481402
5189,41.88448896
5190,92.76494203
5191,132.484537
5192,156.567749
5193,167.3782864
5194,158.1911127
5195,137.9619774
5196,101.150109
5197,54.17741298
5198,32.47043357
5199,40.64223839
5200,44.16371367
5201,43.16303324
5202,44.0178216
5203,46.55327408
5204,50.16798075
5205,59.14865427
5206,67.17595869
5207,69.85127341
5208,75.06735967
5209,81.27181878
5210,85.49025499
5211,85.45927108
5212,87.29074449
5213,88.3973034
5214,89.08192632
5215,87.75724142
5216,88.09222455
5217,89.96569039
5218,93.66429055
5219,95.3046327
5220,96.02657891
5221,96.88136818
5222,96.82243069
5223,96.96393271
5224,97.47839009
5225,99.24696739
5226,104.0131644
5227,112.1453587
5228,121.582912
5229,130.7990298
5230,141.0663866
5231,144.1146883
5232,136.9694781
5233,126.7589909
5234,115.4203298
5235,103.6084633
5236,95.56115366
5237,88.03368051
5238,75.70200819
5239,69.4845327
5240,100.819517
5241,147.292044
5242,183.9067525
5243,208.2510448
5244,218.2946779
5245,213.2916803
5246,192.8154465
5247,151.026896
5248,97.96792923
5249,62.50573376
5250,64.24162793
5251,72.59293963
5252,74.64820036
5253,77.17666669
5254,79.29952395
5255,84.74406704
5256,87.23057185
5257,87.44669097
5258,88.92385749
5259,91.47563955
5260,93.39802712
5261,94.175914
5262,95.90250089
5263,97.09997405
5264,97.24614721
5265,98.25245836
5266,98.03965335
5267,96.99469506
5268,95.45788502
5269,91.9583675
5270,89.94603265
5271,88.95701327
5272,89.30832598
5273,91.09320196
5274,91.51674987
5275,91.10350583
5276,90.61097717
5277,93.25364143
5278,96.68655843
5279,100.208007
5280,106.4497619
5281,113.2486154
5282,117.4763934
5283,117.3568204
5284,110.6451759
5285,100.3368213
5286,89.43172594
5287,82.01146343
5288,71.01310649
5289,53.54856308
5290,45.0676928
5291,72.3304444
5292,116.9987441
5293,152.9304717
5294,178.503221
5295,189.3883483
5296,187.0659866
5297,165.7249787
5298,126.6497179
5299,77.25277142
5300,41.50850441
5301,39.02064614
5302,44.75657331
5303,44.24771904
5304,43.63400642
5305,42.26968349
5306,46.66762868
5307,48.23104023
5308,50.01823722
5309,50.2063742
5310,50.16608716
5311,49.4451361
5312,46.61227713
5313,42.8493645
5314,37.34984913
5315,38.26061213
5316,44.57927313
5317,44.6905062
5318,41.95786724
5319,37.5772486
5320,35.75372839
5321,32.07473948
5322,27.79434071
5323,24.90554354
5324,22.14263144
5325,25.59883559
5326,28.99443188
5327,28.72337172
5328,28.99076376
5329,32.78263095
5330,39.66541005
5331,46.55984691
5332,52.22814856
5333,55.92678474
5334,52.47390119
5335,44.6503817
5336,35.19282905
5337,24.50218319
5338,15.53181326
5339,4.971691174
5340,-9.469534376
5341,-9.09258361
5342,28.51746047
5343,74.29068208
5344,109.052246
5345,131.5597207
5346,141.7898211
5347,135.6982358
5348,112.8071205
5349,74.79713923
5350,28.58900742
5351,3.681565356
5352,12.41514507
5353,18.99488571
5354,22.75879999
5355,25.2056672
5356,27.31455228
5357,29.76608877
5358,32.4624068
5359,36.46872244
5360,39.70114287
5361,42.94522105
5362,46.44570798
5363,48.61288197
5364,51.96184921
5365,51.68380235
5366,52.34047843
5367,55.27684816
5368,57.05239031
5369,58.27318396
5370,63.28648865
5371,64.6331369
5372,64.68373417
5373,65.75999677
5374,67.58915858
5375,68.90083387
5376,71.35005194
5377,73.33308352
5378,75.50254705
5379,78.45060559
5380,84.67136925
5381,91.27210733
5382,99.70731811
5383,108.0516476
5384,111.6104241
5385,113.3976248
5386,107.8771473
5387,99.14918084
5388,89.20911725
5389,79.60471656
5390,68.60871434
5391,52.63135841
5392,51.63068711
5393,91.64634275
5394,141.3682668
5395,181.0249442
5396,204.544079
5397,212.6506162
5398,203.2583741
5399,177.8264593
5400,133.6276377
5401,81.4125198
5402,52.90836996
5403,59.54872091
5404,65.80912805
5405,67.37721347
5406,68.88704088
5407,70.35487614
5408,72.94627713
5409,76.06917231
5410,78.7048544
5411,81.77413029
5412,85.40981248
5413,85.62358919
5414,88.36651025
5415,90.01851948
5416,88.95257222
5417,87.08712549
5418,87.56198033
5419,86.62191822
5420,83.97555733
5421,79.63455538
5422,76.28656495
5423,72.53296543
5424,73.33649487
5425,74.26124018
5426,74.95521161
5427,77.06410008
5428,79.7860257
5429,80.4590317
5430,81.10405313
5431,81.18495717
5432,87.44536565
5433,92.00878322
5434,98.97317129
5435,101.8676131
5436,99.48465021
5437,93.02011387
5438,82.32712298
5439,69.62015509
5440,59.33045409
5441,48.24586178
5442,34.99812255
5443,25.52192878
5444,54.46065204
5445,100.3037943
5446,137.3660833
5447,160.6521273
5448,168.4742736
5449,161.755679
5450,140.5265559
5451,102.4256677
5452,51.09400557
5453,14.83457863
5454,13.79194861
5455,21.31108622
5456,19.57149585
5457,23.89718263
5458,35.43963581
5459,43.3946867
5460,54.79260873
5461,62.58680156
5462,64.10828935
5463,73.19386411
5464,77.41231246
5465,81.25313634
5466,81.03103302
5467,84.31472808
5468,90.36767979
5469,88.14557662
5470,90.17988218
5471,92.22349565
5472,89.15523173
5473,92.94011727
5474,90.96273479
5475,92.03433307
5476,87.1269275
5477,87.49222705
5478,84.81556498
5479,84.43028479
5480,83.37364845
5481,88.275081
5482,81.34902947
5483,78.25278145
5484,80.38965727
5485,89.16285515
5486,93.17851523
5487,97.79323543
5488,89.77160313
5489,82.33502337
5490,71.16419073
5491,59.01667357
5492,45.1558691
5493,27.21349119
5494,17.05895512
5495,41.88348405
5496,91.30939242
5497,131.3716534
5498,160.2894136
5499,171.2747399
5500,167.6936599
5501,146.8794867
5502,112.2377989
5503,58.54481117
5504,15.34367524
5505,7.489859917
5506,16.40762057
5507,15.10858439
5508,19.94007195
5509,18.27741893
5510,19.58910067
5511,24.22713744
5512,26.55279633
5513,28.45423041
5514,31.67966967
5515,31.9773746
5516,34.26342186
5517,30.66137713
5518,29.8774782
5519,25.92811301
5520,22.85750152
5521,22.59111983
5522,20.47622743
5523,19.13523035
5524,17.90846062
5525,17.2924087
5526,16.25213198
5527,15.29574813
5528,18.52350739
5529,21.0403292
5530,22.96507952
5531,27.22781207
5532,28.84952294
5533,36.2824216
5534,41.78758594
5535,49.45592781
5536,53.15457368
5537,60.01868591
5538,61.68470859
5539,58.93111462
5540,49.65774531
5541,43.59647321
5542,34.72865208
5543,32.24547456
5544,17.55483859
5545,4.199865512
5546,24.20387075
5547,81.80226691
5548,129.5801675
5549,163.1389519
5550,180.5788399
5551,183.8975122
5552,166.8036173
5553,130.9801082
5554,77.58085457
5555,31.17458192
5556,24.16458007
5557,40.52991396
5558,43.61549326
5559,43.8152999
5560,47.36706582
5561,49.65546508
5562,51.42866664
5563,50.68676205
5564,53.73736849
5565,56.80897107
5566,59.31413694
5567,59.79131823
5568,60.34778424
5569,58.86924663
5570,61.94551864
5571,63.32016106
5572,61.63184576
5573,56.03911157
5574,55.93356004
5575,54.84430495
5576,49.01380845
5577,42.91289573
5578,41.38543888
5579,43.14002553
5580,46.77107707
5581,48.63754126
5582,50.58792883
5583,47.46837016
5584,52.54464284
5585,57.13837163
5586,62.17268273
5587,67.26293261
5588,73.64920304
5589,75.07279651
5590,70.21898525
5591,61.19500802
5592,51.40879329
5593,37.53868578
5594,28.91796797
5595,11.33457321
5596,5.681232207
5597,37.62927064
5598,86.02487993
5599,125.9636106
5600,153.4920935
5601,167.1301346
5602,161.889361
5603,139.5646947
5604,101.8041458
5605,49.65428421
5606,16.81445077
5607,17.74854315
5608,21.95534066
5609,24.71691726
5610,26.61835598
5611,30.12816267
5612,34.98998966
5613,40.02662139
5614,43.60637451
5615,46.04162694
5616,48.68198807
5617,46.17781799
5618,45.44989307
5619,46.02964643
5620,45.16185955
5621,46.88846359
5622,50.81089897
5623,52.2204865
5624,51.52286583
5625,48.55714828
5626,46.20217907
5627,45.4695854
5628,49.0773238
5629,51.44031128
5630,52.58650193
5631,52.18023291
5632,51.11896516
5633,50.89455048
5634,49.94049108
5635,50.28715194
5636,56.12566465
5637,67.62149553
5638,76.85627909
5639,81.45699898
5640,79.66379801
5641,70.43004534
5642,61.23825438
5643,51.80168198
5644,42.72878761
5645,31.19663425
5646,16.04680515
5647,15.63354837
5648,50.44642689
5649,101.0354895
5650,139.2003579
5651,163.8803325
5652,173.6255843
5653,166.8324145
5654,142.4284659
5655,97.91267041
5656,45.07052001
5657,12.68524833
5658,15.42818104
5659,24.39023001
5660,23.91636594
5661,24.96932687
5662,27.45585108
5663,31.73955551
5664,38.20743358
5665,40.02730143
5666,39.05459732
5667,40.56675653
5668,42.03930398
5669,42.84516446
5670,42.33635824
5671,45.60376667
5672,46.93645225
5673,48.67004729
5674,49.41764996
5675,48.73632811
5676,44.46528463
5677,43.46929612
5678,42.4429732
5679,43.92482903
5680,45.33911899
5681,46.35942707
5682,46.31680795
5683,48.02711856
5684,50.54159792
5685,53.16798529
5686,54.75939956
5687,59.21330168
5688,64.6555156
5689,75.8739747
5690,81.69384375
5691,78.54633614
5692,72.93029221
5693,61.3515408
5694,53.09447523
5695,42.47376224
5696,30.48244384
5697,12.86871948
5698,10.39720708
5699,50.42453506
5700,100.7315567
5701,137.2344097
5702,161.1288337
5703,170.3030125
5704,164.6939577
5705,141.0289641
5706,99.31502048
5707,47.70132711
5708,17.53981275
5709,20.64172617
5710,26.56648509
5711,26.20218156
5712,28.41832242
5713,34.02606489
5714,37.49159549
5715,41.1949191
5716,45.9984625
5717,46.86725252
5718,49.73372325
5719,50.54425531
5720,48.24290998
5721,45.05112279
5722,41.12038303
5723,43.20133154
5724,46.11907209
5725,46.86667719
5726,45.58397838
5727,45.89798983
5728,44.55700254
5729,42.06452605
5730,39.79812382
5731,37.53874068
5732,34.38656584
5733,37.8544472
5734,42.13351635
5735,39.48250133
5736,40.12054885
5737,46.37395286
5738,52.18216649
5739,59.200158
5740,66.10160293
5741,68.7839317
5742,63.6131111
5743,56.59612966
5744,47.39503571
5745,35.29880022
5746,26.62913947
5747,15.00144045
5748,0.315483417
5749,4.599222477
5750,45.48666031
5751,90.49534454
5752,125.131043
5753,147.6292292
5754,156.5889329
5755,150.0894691
5756,127.8790069
5757,84.99724947
5758,37.213362
5759,13.08685374
5760,17.70622565
5761,20.14380439
5762,20.1338429
5763,19.55042565
5764,18.99734291
5765,20.95005857
5766,27.67666953
5767,32.12590628
5768,35.07862208
5769,38.08730716
5770,41.12861558
5771,41.27246312
5772,40.99211636
5773,40.34577234
5774,39.97213344
5775,41.56123263
5776,43.91025008
5777,46.5016687
5778,47.38678854
5779,50.38381639
5780,47.87733476
5781,44.8859899
5782,43.09279572
5783,41.59098343
5784,40.91433597
5785,40.77614072
5786,42.48413692
5787,42.25737975
5788,45.86277594
5789,54.60339558
5790,60.49550451
5791,69.52747556
5792,72.86950525
5793,69.33272029
5794,60.51853059
5795,51.31508923
5796,39.33076413
5797,26.02939196
5798,14.86559307
5799,1.191265676
5800,1.563569184
5801,42.4580285
5802,84.67881233
5803,117.9695425
5804,139.8057134
5805,146.6045918
5806,135.5176976
5807,111.0671865
5808,70.36490546
5809,27.96798333
5810,4.50111495
5811,11.16013163
5812,11.46950847
5813,12.48985337
5814,13.62204524
5815,14.89644907
5816,15.18019133
5817,18.94177788
5818,20.66375266
5819,24.37870844
5820,21.80930148
5821,18.87389725
5822,17.20658999
5823,16.76303767
5824,14.43606254
5825,15.48204278
5826,17.24826843
5827,20.25927562
5828,14.96724331
5829,13.0598546
5830,9.492767447
5831,6.603994556
5832,3.377239534
5833,-3.00802374
5834,-13.192817
5835,-19.89042759
5836,-25.30367534
5837,-29.15280561
5838,-34.28864848
5839,-33.80446566
5840,-28.22702109
5841,-21.74747685
5842,-20.46141401
5843,-22.80938433
5844,-31.77042222
5845,-43.96220348
5846,-55.22159638
5847,-60.74672105
5848,-65.18326839
5849,-67.50560366
5850,-63.87221988
5851,-40.21552062
5852,12.45515573
5853,61.61301475
5854,100.6986082
5855,127.9753638
5856,145.7835525
5857,149.286413
5858,131.6237461
5859,108.0823256
5860,88.98142644
5861,90.96445063
5862,109.7447161
5863,109.7370482
5864,109.654826
5865,109.3068567
5866,109.1010689
5867,109.112078
5868,106.45875
5869,108.6492636
5870,115.8117621
5871,123.2283805
5872,125.3396096
5873,129.1618067
5874,134.3593091
5875,133.8155395
5876,141.6423755
5877,146.1312598
5878,145.3357204
5879,142.5728348
5880,139.716718
5881,139.280157
5882,135.8995652
5883,135.8336403
5884,132.907608
5885,127.4477317
5886,132.5030227
5887,129.3252205
5888,129.4364809
5889,136.6129879
5890,141.5214285
5891,152.7189011
5892,164.3452984
5893,167.2397621
5894,167.8475132
5895,163.4622529
5896,152.8765227
5897,136.6357632
5898,123.9358363
5899,110.4013757
5900,88.65713736
5901,86.5049706
5902,118.7094628
5903,155.0677942
5904,183.7547999
5905,202.2553128
5906,205.6415984
5907,194.6223055
5908,170.3023229
5909,130.0918679
5910,81.64835029
5911,55.86681999
5912,59.55614546
5913,63.50654884
5914,66.62943763
5915,71.48660992
5916,76.0407427
5917,76.13799687
5918,76.92754234
5919,80.26490891
5920,80.58826795
5921,81.26828598
5922,82.6126107
5923,83.38354069
5924,84.78847342
5925,87.74354657
5926,89.75455849
5927,90.57208901
5928,90.35931563
5929,91.29574273
5930,90.05266549
5931,86.66508756
5932,83.89985465
5933,81.17429464
5934,80.43936578
5935,79.66250582
5936,76.97188858
5937,77.88265078
5938,78.8074206
5939,82.15409598
5940,88.43317498
5941,94.72391174
5942,101.1451722
5943,105.1002157
5944,106.9900127
5945,100.1851991
5946,90.1822044
5947,83.06269365
5948,75.69840144
5949,69.1103544
5950,57.77169706
5951,52.33748923
5952,74.59792256
5953,115.9888796
5954,151.123428
5955,172.0132255
5956,181.7258685
5957,178.1448104
5958,160.6756297
5959,128.6446816
5960,86.41793266
5961,55.50588107
5962,53.03901996
5963,59.03837593
5964,58.58320314
5965,57.35645448
5966,56.96652837
5967,56.35516676
5968,57.02352932
5969,58.37017562
5970,59.64461738
5971,59.22438755
5972,59.64098028
5973,57.28834699
5974,55.23875329
5975,53.88846995
5976,52.00904236
5977,51.24616146
5978,50.36673397
5979,50.03741639
5980,48.65216014
5981,46.94753748
5982,43.70681258
5983,40.58263435
5984,36.81276525
5985,34.55803292
5986,31.90239122
5987,30.67097441
5988,30.39527665
5989,31.13822517
5990,34.76227726
5991,40.16257451
5992,44.5138911
5993,47.12631614
5994,44.24457008
5995,37.48867856
5996,26.51834006
5997,13.84402212
5998,2.237331186
5999,-9.490606042
6000,-23.99240797
6001,-32.95340784
6002,-11.20115084
6003,31.46489406
6004,69.74861479
6005,96.01838903
6006,108.0153972
6007,104.8142853
6008,88.04209802
6009,54.86662099
6010,10.78205587
6011,-22.38640203
6012,-23.59450221
6013,-12.44829326
6014,-5.521200473
6015,0.820809353
6016,6.538124402
6017,12.12256596
6018,17.56482618
6019,21.64108912
6020,25.72437116
6021,27.60251409
6022,28.51331087
6023,29.25858035
6024,29.02948465
6025,28.71649618
6026,29.12610296
6027,29.81311458
6028,29.65396536
6029,28.83981741
6030,27.151524
6031,23.69400456
6032,20.61877887
6033,19.44565283
6034,15.93918334
6035,13.70541898
6036,12.14999939
6037,13.17502418
6038,13.74780903
6039,15.9149848
6040,21.42017331
6041,29.83911919
6042,39.90839471
6043,47.43689879
6044,48.89780649
6045,46.51255335
6046,39.6657524
6047,32.93317879
6048,23.75538428
6049,15.1230305
6050,2.567611579
6051,-2.199904463
6052,24.32158101
6053,68.02257092
6054,105.8447767
6055,133.0259608
6056,146.2281105
6057,145.027001
6058,128.0380192
6059,94.52691228
6060,50.31179535
6061,17.73309204
6062,16.86529576
6063,24.44742019
6064,27.62161619
6065,32.94498217
6066,37.53409526
6067,42.41687905
6068,46.55378277
6069,50.061292
6070,53.27278077
6071,55.44697711
6072,58.75868571
6073,58.79067023
6074,59.23061378
6075,61.17400587
6076,63.39950249
6077,64.99792397
6078,66.18374785
6079,66.73324974
6080,66.64169944
6081,66.66434597
6082,65.53785313
6083,63.28779467
6084,62.99812445
6085,64.08137907
6086,65.96187496
6087,66.8213748
6088,69.97924504
6089,75.22335801
6090,81.78448763
6091,90.05658532
6092,96.03495136
6093,97.88282429
6094,95.6514126
6095,89.12861912
6096,79.31212451
6097,69.49331062
6098,61.30621064
6099,49.18667663
6100,35.88534945
6101,48.26465587
6102,93.1171679
6103,135.3426353
6104,167.4212522
6105,186.0616366
6106,187.6251169
6107,176.0393967
6108,145.7730126
6109,99.90524905
6110,56.54331444
6111,40.9482561
6112,50.51637529
6113,52.74651236
6114,54.80181427
6115,55.67532301
6116,58.23877321
6117,61.18918635
6118,63.00440666
6119,66.05040095
6120,67.03810671
6121,66.67150344
6122,66.89929108
6123,64.7401464
6124,62.49475909
6125,59.2260564
6126,58.77089135
6127,56.00801761
6128,55.46191028
6129,55.58480934
6130,55.43732271
6131,56.41804047
6132,59.07008396
6133,62.55196148
6134,67.93361933
6135,72.98892224
6136,78.14679478
6137,83.24872865
6138,91.44157443
6139,101.1216029
6140,110.6780657
6141,116.4373484
6142,119.3527896
6143,118.1400265
6144,112.400469
6145,103.2063522
6146,92.92834264
6147,83.16312
6148,69.85712593
6149,59.5068509
6150,76.24745726
6151,118.8715476
6152,158.4862995
6153,189.0893938
6154,205.4757218
6155,206.1953628
6156,191.1294509
6157,159.7651687
6158,114.839119
6159,75.61469892
6160,62.99168881
6161,67.00271196
6162,65.26782452
6163,64.28351695
6164,62.83531173
6165,61.19133629
6166,59.34454107
6167,59.07352105
6168,59.63230455
6169,59.36595381
6170,57.71264023
6171,55.32504325
6172,54.01673099
6173,54.22355549
6174,54.72176188
6175,55.39245367
6176,55.50137792
6177,57.01121165
6178,57.15977834
6179,58.26635289
6180,57.97436791
6181,57.87815324
6182,58.36235245
6183,59.53890399
6184,60.3074966
6185,62.27420937
6186,66.36448786
6187,73.73680986
6188,81.61499129
6189,91.22507583
6190,95.68132131
6191,96.21447114
6192,91.88983293
6193,83.1083161
6194,73.35475343
6195,63.69680237
6196,54.49334965
6197,39.30158522
6198,30.24733303
6199,57.62200546
6200,100.6936384
6201,135.5181705
6202,159.783285
6203,168.7756334
6204,163.7097543
6205,141.662491
6206,104.8926325
6207,55.17871276
6208,20.35523498
6209,21.25203313
6210,29.316678
6211,31.88248259
6212,35.39933704
6213,37.13063855
6214,40.34677287
6215,42.4883528
6216,45.56230583
6217,46.30758458
6218,47.76615074
6219,47.91005019
6220,47.95369945
6221,47.16986463
6222,47.5421883
6223,46.35741363
6224,46.60385239
6225,46.73377508
6226,47.48140412
6227,46.95861694
6228,47.27268284
6229,46.34663649
6230,46.34600522
6231,45.08429612
6232,45.88786416
6233,47.03176429
6234,49.97983316
6235,56.60856615
6236,65.13707945
6237,73.32758011
6238,79.68128882
6239,81.91607058
6240,78.40494174
6241,70.06632882
6242,59.27315662
6243,48.81097812
6244,39.78004357
6245,27.39714983
6246,11.47809281
6247,17.59168965
6248,59.28570036
6249,101.3643241
6250,133.102616
6251,152.3910177
6252,155.4812993
6253,144.8046743
6254,117.2492651
6255,73.33490822
6256,27.47645959
6257,10.88140822
6258,20.65934275
6259,23.51186228
6260,25.55551345
6261,28.67609948
6262,30.72676979
6263,35.09674557
6264,38.2196816
6265,42.38454883
6266,44.49579672
6267,46.05928465
6268,45.44558757
6269,45.2118649
6270,44.42568257
6271,45.61618485
6272,46.90928728
6273,48.13708213
6274,48.67490512
6275,49.61366809
6276,49.46618843
6277,48.30238192
6278,47.8728589
6279,48.26850072
6280,48.9974861
6281,50.33017026
6282,52.56498459
6283,53.6925602
6284,56.49146154
6285,61.59340248
6286,69.42495772
6287,76.32407893
6288,81.69640576
6289,81.99414767
6290,78.31987425
6291,69.80874785
6292,60.81278873
6293,49.99163435
6294,41.10523343
6295,27.65938432
6296,19.12262339
6297,40.42735421
6298,88.71810803
6299,131.0554622
6300,162.0711612
6301,177.2640148
6302,177.0582478
6303,159.3396635
6304,125.1409156
6305,75.79296738
6306,34.87626308
6307,27.07375561
6308,36.30622133
6309,38.4454559
6310,41.68957943
6311,45.1132074
6312,49.42959665
6313,53.67838951
6314,58.08569072
6315,62.19462162
6316,65.38744539
6317,67.86234318
6318,69.40019878
6319,70.57904564
6320,72.29637522
6321,74.73630005
6322,76.41166805
6323,77.87023923
6324,78.68315005
6325,79.25127942
6326,77.9313168
6327,76.05190599
6328,73.62235484
6329,71.50985086
6330,69.07798047
6331,67.93984182
6332,66.6268375
6333,67.94090842
6334,71.59995009
6335,78.21937999
6336,84.43088147
6337,88.48851337
6338,87.42496001
6339,82.24717941
6340,72.09503362
6341,60.63285981
6342,49.11941651
6343,38.15843297
6344,23.24169997
6345,14.7049719
6346,34.5528264
6347,73.45430033
6348,106.8639225
6349,131.5719151
6350,142.6994939
6351,139.6242834
6352,121.9476631
6353,88.66499429
6354,44.26110967
6355,10.37236181
6356,5.597841298
6357,12.24757621
6358,14.84601111
6359,19.26497219
6360,23.44382101
6361,27.07957905
6362,30.16519677
6363,32.80324373
6364,34.57419479
6365,35.50829287
6366,35.02048548
6367,33.46276237
6368,32.14979029
6369,32.13982728
6370,33.31171857
6371,35.2061746
6372,37.31977741
6373,39.42639175
6374,41.60991043
6375,43.35519673
6376,43.86507048
6377,44.00662764
6378,44.99434572
6379,46.2408224
6380,47.05837457
6381,48.15797024
6382,49.7447791
6383,52.19169542
6384,58.01858616
6385,65.859454
6386,74.15720054
6387,79.98409143
6388,81.32376922
6389,77.50963847
6390,69.29221797
6391,58.93496597
6392,48.78050334
6393,39.59573679
6394,26.70464094
6395,16.99774925
6396,37.75002508
6397,84.2855346
6398,124.0285027
6399,152.4101732
6400,166.1461223
6401,164.2014684
6402,146.6763703
6403,113.1419338
6404,65.68443219
6405,26.71411324
6406,20.14473428
6407,29.53339369
6408,31.22973138
6409,33.60441384
6410,36.07931607
6411,38.84556967
6412,42.16663289
6413,46.05178307
6414,49.75279023
6415,52.96896468
6416,54.89842652
6417,55.6693496
6418,56.25149099
6419,56.6914205
6420,57.34115842
6421,58.49669473
6422,59.51706872
6423,60.23205337
6424,60.6160444
6425,60.38464853
6426,60.04836378
6427,59.56989769
6428,60.32916357
6429,61.22133356
6430,62.63562884
6431,63.59072617
6432,64.81385944
6433,66.33539363
6434,69.72637367
6435,75.88194116
6436,83.53164932
6437,90.92497936
6438,95.25770154
6439,94.73492449
6440,89.7692764
6441,80.57517377
6442,70.01977358
6443,59.83034023
6444,49.83203852
6445,34.85940215
6446,27.43452583
6447,57.86282949
6448,105.9974015
6449,145.4186862
6450,171.6348623
6451,182.517695
6452,176.5800016
6453,154.6003465
6454,114.8864386
6455,63.9510952
6456,28.24884509
6457,29.17363971
6458,36.75343315
6459,38.60828158
6460,40.55172258
6461,43.29002446
6462,45.73230589
6463,49.34939205
6464,52.40937988
6465,55.7514112
6466,57.90231099
6467,59.3142887
6468,58.73789365
6469,59.0100094
6470,59.02803584
6471,60.07636628
6472,60.50699047
6473,61.25228146
6474,61.16074998
6475,60.97598735
6476,60.04531413
6477,58.6157701
6478,57.56156181
6479,58.20428351
6480,59.47173059
6481,61.50840379
6482,62.97400161
6483,64.31603379
6484,64.38533043
6485,63.63413151
6486,63.28387258
6487,62.71449749
6488,64.70454017
6489,70.44284339
6490,77.93407636
6491,84.94276542
6492,88.60184515
6493,87.17230189
6494,81.5143346
6495,72.30393816
6496,62.36160818
6497,52.1395236
6498,41.18785534
6499,26.11497129
6500,28.76938222
6501,70.51235521
6502,118.036212
6503,153.3502606
6504,175.1818262
6505,180.360682
6506,169.5535453
6507,141.394419
6508,96.49637059
6509,45.37920602
6510,20.4485039
6511,27.92341096
6512,32.85986592
6513,33.87557508
6514,36.34346324
6515,38.69016615
6516,41.70355611
6517,44.68661165
6518,47.63704395
6519,50.40800241
6520,52.41437353
6521,53.07809332
6522,52.98656414
6523,52.83442709
6524,52.94101812
6525,53.21313655
6526,53.35705067
6527,53.15596362
6528,52.05976554
6529,51.36917663
6530,49.51776013
6531,47.92507171
6532,46.55381889
6533,46.67905659
6534,46.77869009
6535,48.06243619
6536,48.84505318
6537,49.48078912
6538,48.4755339
6539,47.68701456
6540,46.17824991
6541,46.2429106
6542,48.32154839
6543,54.3442475
6544,61.25036952
6545,68.33367664
6546,70.55449602
6547,68.40004078
6548,60.99149624
6549,50.79041025
6550,38.99026424
6551,28.40224596
6552,15.73262373
6553,1.599134359
6554,9.54257985
6555,55.928927
6556,101.0961275
6557,134.8297953
6558,153.6963061
6559,156.2551388
6560,141.8885565
6561,111.1443498
6562,64.71480981
6563,16.68389049
6564,-1.470563927
6565,9.750256357
6566,14.49323245
6567,17.34811655
6568,20.70181051
6569,23.82006141
6570,27.50477964
6571,31.24775597
6572,35.13758294
6573,38.10431425
6574,40.87527534
6575,41.86999137
6576,43.48943279
6577,43.92003148
6578,45.24809115
6579,46.24048803
6580,48.51959761
6581,49.41876338
6582,50.38082593
6583,50.4431693
6584,50.6593213
6585,50.03401217
6586,51.07300972
6587,52.00714893
6588,54.3748209
6589,56.61428857
6590,59.37127338
6591,60.17018939
6592,61.26747581
6593,62.29716584
6594,64.08442428
6595,68.5243622
6596,75.9153805
6597,84.29471062
6598,91.08196925
6599,93.638454
6600,91.39543928
6601,84.57198028
6602,75.04454184
6603,65.23042131
6604,55.33469683
6605,43.76297752
6606,30.82297213
6607,44.19998338
6608,91.57699469
6609,136.0985373
6610,168.1935052
6611,185.9784146
6612,187.2039063
6613,172.697495
6614,140.550001
6615,93.78715059
6616,47.90543425
6617,34.33139618
6618,44.85757788
6619,48.49334825
6620,50.84469485
6621,54.54806175
6622,57.81316577
6623,62.15987383
6624,66.21288077
6625,70.86961701
6626,74.62425369
6627,78.2530054
6628,79.96799984
6629,82.24244256
6630,83.50989681
6631,85.2412183
6632,86.49237626
6633,87.72485751
6634,88.12750482
6635,88.34600911
6636,88.24517751
6637,87.97881862
6638,87.76144049
6639,88.00322989
6640,88.94899882
6641,90.2537766
6642,92.18089939
6643,93.259542
6644,93.87431748
6645,93.38185423
6646,92.9313527
6647,92.23378091
6648,92.86021429
6649,95.53324806
6650,102.2622511
6651,108.6089605
6652,113.7808348
6653,114.6986502
6654,111.8402206
6655,104.5365701
6656,94.78537935
6657,83.90131511
6658,75.02890864
6659,64.1774983
6660,52.71067054
6661,60.91519902
6662,102.2898936
6663,141.806739
6664,172.680274
6665,190.1411809
6666,192.1475895
6667,178.5199344
6668,149.4050968
6669,105.0571659
6670,60.07053273
6671,41.84149846
6672,48.78259974
6673,49.43701893
6674,50.66251361
6675,52.27262138
6676,53.26035371
6677,54.60474502
6678,55.63907778
6679,57.02311152
6680,57.544627
6681,57.81208368
6682,56.63431947
6683,55.16050428
6684,53.18089079
6685,52.94251881
6686,53.38246109
6687,54.72917221
6688,55.86842489
6689,57.83284241
6690,58.82759445
6691,59.20225986
6692,58.01518826
6693,56.79311305
6694,55.78783477
6695,56.24877357
6696,56.41833058
6697,56.8699311
6698,56.72015227
6699,56.96429438
6700,55.81915432
6701,54.80224917
6702,54.0067491
6703,54.18564482
6704,58.12674763
6705,64.49677504
6706,71.76423292
6707,77.00370623
6708,77.6091769
6709,73.39876017
6710,64.93196531
6711,54.39754355
6712,43.20345386
6713,33.13759909
6714,22.07638304
6715,9.919585977
6716,22.4201376
6717,66.60834185
6718,107.5774299
6719,137.4323213
6720,154.2545589
6721,155.4497519
6722,140.9479539
6723,110.5347791
6724,65.75328763
6725,22.08367367
6726,8.031796565
6727,17.4717408
6728,19.34991751
6729,20.73392312
6730,22.87784699
6731,24.91920133
6732,27.53861968
6733,30.48674291
6734,33.24138475
6735,35.07528078
6736,36.48959068
6737,36.75006152
6738,35.71915057
6739,34.64627799
6740,34.10718843
6741,34.43061722
6742,35.38106022
6743,36.35246884
6744,37.0115301
6745,37.31161313
6746,37.45321843
6747,37.4386043
6748,37.39139744
6749,38.43507197
6750,39.51140036
6751,40.97466118
6752,42.14187101
6753,42.61913949
6754,42.37378228
6755,41.75778913
6756,40.30729286
6757,39.82881201
6758,39.73497477
